# Pulseq sequence file
# Created by PyPulseq

[VERSION]
major 1
minor 4
revision 2

[DEFINITIONS]
AdcRasterTime 1e-06 
BlockDurationRaster 1e-06 
GradientRasterTime 1e-06 
Name tse_2d 
RadiofrequencyRasterTime 1e-06 
TotalDuration 10 
channel_order z y x 
encoding_dim 120 120 1 
encoding_fov 0.2 0.2 0.2 
n_total_trains 20 
tr_delay 0.37 
train_duration 0.13 
train_duration_tr 0.5 

# Format of blocks:
# NUM DUR RF  GX  GY  GZ  ADC  EXT
[BLOCKS]
  1 220   1   0   0   0  0  0
  2 1780   0   0   0   1  0  0
  3 8000   0   0   0   0  0  0
  4 220   2   0   0   0  0  0
  5 1780   0   3   2   0  0  0
  6 6260   0   0   0   0  0  0
  7 3560   0   0   0   4  1  2
  8 1780   0   3   5   0  0  0
  9 6400   0   0   0   0  0  0
 10 220   2   0   0   0  0  0
 11 1780   0   3   6   0  0  0
 12 6260   0   0   0   0  0  0
 13 3560   0   0   0   4  1  4
 14 1780   0   3   7   0  0  0
 15 6400   0   0   0   0  0  0
 16 220   2   0   0   0  0  0
 17 1780   0   3   8   0  0  0
 18 6260   0   0   0   0  0  0
 19 3560   0   0   0   4  1  5
 20 1780   0   3   9   0  0  0
 21 6400   0   0   0   0  0  0
 22 220   2   0   0   0  0  0
 23 1780   0   3  10   0  0  0
 24 6260   0   0   0   0  0  0
 25 3560   0   0   0   4  1  6
 26 1780   0   3  11   0  0  0
 27 6400   0   0   0   0  0  0
 28 220   2   0   0   0  0  0
 29 1780   0   3  12   0  0  0
 30 6260   0   0   0   0  0  0
 31 3560   0   0   0   4  1  7
 32 1780   0   3  13   0  0  0
 33 6400   0   0   0   0  0  0
 34 220   2   0   0   0  0  0
 35 1780   0   3  14   0  0  0
 36 6260   0   0   0   0  0  0
 37 3560   0   0   0   4  1  8
 38 1780   0   3  15   0  0  0
 39 6400   0   0   0   0  0  0
 40 370000   0   0   0   0  0  0
 41 220   1   0   0   0  0  0
 42 1780   0   0   0   1  0  0
 43 8000   0   0   0   0  0  0
 44 220   2   0   0   0  0  0
 45 1780   0   3   5   0  0  0
 46 6260   0   0   0   0  0  0
 47 3560   0   0   0   4  1  9
 48 1780   0   3   2   0  0  0
 49 6400   0   0   0   0  0  0
 50 220   2   0   0   0  0  0
 51 1780   0   3   7   0  0  0
 52 6260   0   0   0   0  0  0
 53 3560   0   0   0   4  1 10
 54 1780   0   3   6   0  0  0
 55 6400   0   0   0   0  0  0
 56 220   2   0   0   0  0  0
 57 1780   0   3   9   0  0  0
 58 6260   0   0   0   0  0  0
 59 3560   0   0   0   4  1 11
 60 1780   0   3   8   0  0  0
 61 6400   0   0   0   0  0  0
 62 220   2   0   0   0  0  0
 63 1780   0   3  11   0  0  0
 64 6260   0   0   0   0  0  0
 65 3560   0   0   0   4  1 12
 66 1780   0   3  10   0  0  0
 67 6400   0   0   0   0  0  0
 68 220   2   0   0   0  0  0
 69 1780   0   3  13   0  0  0
 70 6260   0   0   0   0  0  0
 71 3560   0   0   0   4  1 13
 72 1780   0   3  12   0  0  0
 73 6400   0   0   0   0  0  0
 74 220   2   0   0   0  0  0
 75 1780   0   3  15   0  0  0
 76 6260   0   0   0   0  0  0
 77 3560   0   0   0   4  1 14
 78 1780   0   3  14   0  0  0
 79 6400   0   0   0   0  0  0
 80 370000   0   0   0   0  0  0
 81 220   1   0   0   0  0  0
 82 1780   0   0   0   1  0  0
 83 8000   0   0   0   0  0  0
 84 220   2   0   0   0  0  0
 85 1780   0   3  16   0  0  0
 86 6260   0   0   0   0  0  0
 87 3560   0   0   0   4  1 15
 88 1780   0   3  17   0  0  0
 89 6400   0   0   0   0  0  0
 90 220   2   0   0   0  0  0
 91 1780   0   3  18   0  0  0
 92 6260   0   0   0   0  0  0
 93 3560   0   0   0   4  1 16
 94 1780   0   3  19   0  0  0
 95 6400   0   0   0   0  0  0
 96 220   2   0   0   0  0  0
 97 1780   0   3  20   0  0  0
 98 6260   0   0   0   0  0  0
 99 3560   0   0   0   4  1 17
100 1780   0   3  21   0  0  0
101 6400   0   0   0   0  0  0
102 220   2   0   0   0  0  0
103 1780   0   3  22   0  0  0
104 6260   0   0   0   0  0  0
105 3560   0   0   0   4  1 18
106 1780   0   3  23   0  0  0
107 6400   0   0   0   0  0  0
108 220   2   0   0   0  0  0
109 1780   0   3  24   0  0  0
110 6260   0   0   0   0  0  0
111 3560   0   0   0   4  1 19
112 1780   0   3  25   0  0  0
113 6400   0   0   0   0  0  0
114 220   2   0   0   0  0  0
115 1780   0   3  26   0  0  0
116 6260   0   0   0   0  0  0
117 3560   0   0   0   4  1 20
118 1780   0   3  27   0  0  0
119 6400   0   0   0   0  0  0
120 370000   0   0   0   0  0  0
121 220   1   0   0   0  0  0
122 1780   0   0   0   1  0  0
123 8000   0   0   0   0  0  0
124 220   2   0   0   0  0  0
125 1780   0   3  17   0  0  0
126 6260   0   0   0   0  0  0
127 3560   0   0   0   4  1 21
128 1780   0   3  16   0  0  0
129 6400   0   0   0   0  0  0
130 220   2   0   0   0  0  0
131 1780   0   3  19   0  0  0
132 6260   0   0   0   0  0  0
133 3560   0   0   0   4  1 22
134 1780   0   3  18   0  0  0
135 6400   0   0   0   0  0  0
136 220   2   0   0   0  0  0
137 1780   0   3  21   0  0  0
138 6260   0   0   0   0  0  0
139 3560   0   0   0   4  1 23
140 1780   0   3  20   0  0  0
141 6400   0   0   0   0  0  0
142 220   2   0   0   0  0  0
143 1780   0   3  23   0  0  0
144 6260   0   0   0   0  0  0
145 3560   0   0   0   4  1 24
146 1780   0   3  22   0  0  0
147 6400   0   0   0   0  0  0
148 220   2   0   0   0  0  0
149 1780   0   3  25   0  0  0
150 6260   0   0   0   0  0  0
151 3560   0   0   0   4  1 25
152 1780   0   3  24   0  0  0
153 6400   0   0   0   0  0  0
154 220   2   0   0   0  0  0
155 1780   0   3  27   0  0  0
156 6260   0   0   0   0  0  0
157 3560   0   0   0   4  1 26
158 1780   0   3  26   0  0  0
159 6400   0   0   0   0  0  0
160 370000   0   0   0   0  0  0
161 220   1   0   0   0  0  0
162 1780   0   0   0   1  0  0
163 8000   0   0   0   0  0  0
164 220   2   0   0   0  0  0
165 1780   0   3  28   0  0  0
166 6260   0   0   0   0  0  0
167 3560   0   0   0   4  1 27
168 1780   0   3  29   0  0  0
169 6400   0   0   0   0  0  0
170 220   2   0   0   0  0  0
171 1780   0   3  30   0  0  0
172 6260   0   0   0   0  0  0
173 3560   0   0   0   4  1 28
174 1780   0   3  31   0  0  0
175 6400   0   0   0   0  0  0
176 220   2   0   0   0  0  0
177 1780   0   3  32   0  0  0
178 6260   0   0   0   0  0  0
179 3560   0   0   0   4  1 29
180 1780   0   3  33   0  0  0
181 6400   0   0   0   0  0  0
182 220   2   0   0   0  0  0
183 1780   0   3  34   0  0  0
184 6260   0   0   0   0  0  0
185 3560   0   0   0   4  1 30
186 1780   0   3  35   0  0  0
187 6400   0   0   0   0  0  0
188 220   2   0   0   0  0  0
189 1780   0   3  36   0  0  0
190 6260   0   0   0   0  0  0
191 3560   0   0   0   4  1 31
192 1780   0   3  37   0  0  0
193 6400   0   0   0   0  0  0
194 220   2   0   0   0  0  0
195 1780   0   3  38   0  0  0
196 6260   0   0   0   0  0  0
197 3560   0   0   0   4  1 32
198 1780   0   3  39   0  0  0
199 6400   0   0   0   0  0  0
200 370000   0   0   0   0  0  0
201 220   1   0   0   0  0  0
202 1780   0   0   0   1  0  0
203 8000   0   0   0   0  0  0
204 220   2   0   0   0  0  0
205 1780   0   3  29   0  0  0
206 6260   0   0   0   0  0  0
207 3560   0   0   0   4  1 33
208 1780   0   3  28   0  0  0
209 6400   0   0   0   0  0  0
210 220   2   0   0   0  0  0
211 1780   0   3  31   0  0  0
212 6260   0   0   0   0  0  0
213 3560   0   0   0   4  1 34
214 1780   0   3  30   0  0  0
215 6400   0   0   0   0  0  0
216 220   2   0   0   0  0  0
217 1780   0   3  33   0  0  0
218 6260   0   0   0   0  0  0
219 3560   0   0   0   4  1 35
220 1780   0   3  32   0  0  0
221 6400   0   0   0   0  0  0
222 220   2   0   0   0  0  0
223 1780   0   3  35   0  0  0
224 6260   0   0   0   0  0  0
225 3560   0   0   0   4  1 36
226 1780   0   3  34   0  0  0
227 6400   0   0   0   0  0  0
228 220   2   0   0   0  0  0
229 1780   0   3  37   0  0  0
230 6260   0   0   0   0  0  0
231 3560   0   0   0   4  1 37
232 1780   0   3  36   0  0  0
233 6400   0   0   0   0  0  0
234 220   2   0   0   0  0  0
235 1780   0   3  39   0  0  0
236 6260   0   0   0   0  0  0
237 3560   0   0   0   4  1 38
238 1780   0   3  38   0  0  0
239 6400   0   0   0   0  0  0
240 370000   0   0   0   0  0  0
241 220   1   0   0   0  0  0
242 1780   0   0   0   1  0  0
243 8000   0   0   0   0  0  0
244 220   2   0   0   0  0  0
245 1780   0   3  40   0  0  0
246 6260   0   0   0   0  0  0
247 3560   0   0   0   4  1 39
248 1780   0   3  41   0  0  0
249 6400   0   0   0   0  0  0
250 220   2   0   0   0  0  0
251 1780   0   3  42   0  0  0
252 6260   0   0   0   0  0  0
253 3560   0   0   0   4  1 40
254 1780   0   3  43   0  0  0
255 6400   0   0   0   0  0  0
256 220   2   0   0   0  0  0
257 1780   0   3  44   0  0  0
258 6260   0   0   0   0  0  0
259 3560   0   0   0   4  1 41
260 1780   0   3  45   0  0  0
261 6400   0   0   0   0  0  0
262 220   2   0   0   0  0  0
263 1780   0   3  46   0  0  0
264 6260   0   0   0   0  0  0
265 3560   0   0   0   4  1 42
266 1780   0   3  47   0  0  0
267 6400   0   0   0   0  0  0
268 220   2   0   0   0  0  0
269 1780   0   3  48   0  0  0
270 6260   0   0   0   0  0  0
271 3560   0   0   0   4  1 43
272 1780   0   3  49   0  0  0
273 6400   0   0   0   0  0  0
274 220   2   0   0   0  0  0
275 1780   0   3  50   0  0  0
276 6260   0   0   0   0  0  0
277 3560   0   0   0   4  1 44
278 1780   0   3  51   0  0  0
279 6400   0   0   0   0  0  0
280 370000   0   0   0   0  0  0
281 220   1   0   0   0  0  0
282 1780   0   0   0   1  0  0
283 8000   0   0   0   0  0  0
284 220   2   0   0   0  0  0
285 1780   0   3  41   0  0  0
286 6260   0   0   0   0  0  0
287 3560   0   0   0   4  1 45
288 1780   0   3  40   0  0  0
289 6400   0   0   0   0  0  0
290 220   2   0   0   0  0  0
291 1780   0   3  43   0  0  0
292 6260   0   0   0   0  0  0
293 3560   0   0   0   4  1 46
294 1780   0   3  42   0  0  0
295 6400   0   0   0   0  0  0
296 220   2   0   0   0  0  0
297 1780   0   3  45   0  0  0
298 6260   0   0   0   0  0  0
299 3560   0   0   0   4  1 47
300 1780   0   3  44   0  0  0
301 6400   0   0   0   0  0  0
302 220   2   0   0   0  0  0
303 1780   0   3  47   0  0  0
304 6260   0   0   0   0  0  0
305 3560   0   0   0   4  1 48
306 1780   0   3  46   0  0  0
307 6400   0   0   0   0  0  0
308 220   2   0   0   0  0  0
309 1780   0   3  49   0  0  0
[RF]
1         1250 1 2 3 20 0 0
2         2500 1 2 3 20 0 1.5708

# Format of trapezoid gradients:
# id amplitude rise flat fall delay
# ..      Hz/m   us   us   us    us
[TRAP]
 1       212658 200 1380 200   0
 2     -1582.28 200 1380 200   0
 3           -0 200 1380 200   0
 4       200000 200 3160 200   0
 5      1582.28 200 1380 200   0
 6     -33227.8 200 1380 200   0
 7      33227.8 200 1380 200   0
 8      64873.4 200 1380 200   0
 9     -64873.4 200 1380 200   0
10        96519 200 1380 200   0
11       -96519 200 1380 200   0
12       128165 200 1380 200   0
13      -128165 200 1380 200   0
14       159810 200 1380 200   0
15      -159810 200 1380 200   0
16     -4746.84 200 1380 200   0
17      4746.84 200 1380 200   0
18      36392.4 200 1380 200   0
19     -36392.4 200 1380 200   0
20       -68038 200 1380 200   0
21        68038 200 1380 200   0
22     -99683.5 200 1380 200   0
23      99683.5 200 1380 200   0
24      -131329 200 1380 200   0
25       131329 200 1380 200   0
26      -162975 200 1380 200   0
27       162975 200 1380 200   0
28      7911.39 200 1380 200   0
29     -7911.39 200 1380 200   0
30       -39557 200 1380 200   0
31        39557 200 1380 200   0
32      71202.5 200 1380 200   0
33     -71202.5 200 1380 200   0
34       102848 200 1380 200   0
35      -102848 200 1380 200   0
36       134494 200 1380 200   0
37      -134494 200 1380 200   0
38      -166139 200 1380 200   0
39       166139 200 1380 200   0
40     -11075.9 200 1380 200   0
41      11075.9 200 1380 200   0
42      42721.5 200 1380 200   0
43     -42721.5 200 1380 200   0
44     -74367.1 200 1380 200   0
45      74367.1 200 1380 200   0
46      -106013 200 1380 200   0
47       106013 200 1380 200   0
48      -137658 200 1380 200   0
49       137658 200 1380 200   0
50       169304 200 1380 200   0
51      -169304 200 1380 200   0
52     -14240.5 200 1380 200   0
53      14240.5 200 1380 200   0
54     -45886.1 200 1380 200   0
55      45886.1 200 1380 200   0
56      77531.6 200 1380 200   0
57     -77531.6 200 1380 200   0
58       109177 200 1380 200   0
59      -109177 200 1380 200   0
60       140823 200 1380 200   0
61      -140823 200 1380 200   0
62      -172468 200 1380 200   0
63       172468 200 1380 200   0
64      17405.1 200 1380 200   0
65     -17405.1 200 1380 200   0
66      49050.6 200 1380 200   0
67     -49050.6 200 1380 200   0
68     -80696.2 200 1380 200   0
69      80696.2 200 1380 200   0
70      -112342 200 1380 200   0
71       112342 200 1380 200   0
72      -143987 200 1380 200   0
73       143987 200 1380 200   0
74       175633 200 1380 200   0
75      -175633 200 1380 200   0
76     -20569.6 200 1380 200   0
77      20569.6 200 1380 200   0
78      52215.2 200 1380 200   0
79     -52215.2 200 1380 200   0
80      83860.8 200 1380 200   0
81     -83860.8 200 1380 200   0
82       115506 200 1380 200   0
83      -115506 200 1380 200   0
84       147152 200 1380 200   0
85      -147152 200 1380 200   0
86       178797 200 1380 200   0
87      -178797 200 1380 200   0
88      23734.2 200 1380 200   0
89     -23734.2 200 1380 200   0
90     -55379.7 200 1380 200   0
91      55379.7 200 1380 200   0
92     -87025.3 200 1380 200   0
93      87025.3 200 1380 200   0
94      -118671 200 1380 200   0
95       118671 200 1380 200   0
96      -150316 200 1380 200   0
97       150316 200 1380 200   0
98      -181962 200 1380 200   0
99       181962 200 1380 200   0
100     -26898.7 200 1380 200   0
101      26898.7 200 1380 200   0
102      58544.3 200 1380 200   0
103     -58544.3 200 1380 200   0
104      90189.9 200 1380 200   0
105     -90189.9 200 1380 200   0
106       121835 200 1380 200   0
107      -121835 200 1380 200   0
108       153481 200 1380 200   0
109      -153481 200 1380 200   0
110       185127 200 1380 200   0
111      -185127 200 1380 200   0
112      30063.3 200 1380 200   0
113     -30063.3 200 1380 200   0
114     -61708.9 200 1380 200   0
115      61708.9 200 1380 200   0
116     -93354.4 200 1380 200   0
117      93354.4 200 1380 200   0
118      -125000 200 1380 200   0
119       125000 200 1380 200   0
120      -156646 200 1380 200   0
121       156646 200 1380 200   0
122      -188291 200 1380 200   0
123       188291 200 1380 200   0

# Format of ADC events:
# id num dwell delay freq phase
# ..  ..    ns    us   Hz   rad
[ADC]
1 120 25000 360 0 0

# Format of extension lists:
# id type ref next_id
# next_id of 0 terminates the list
# Extension list is followed by extension specifications
[EXTENSIONS]
1 1 1 0
2 1 2 1
3 1 2 0
4 1 3 3
5 1 4 3
6 1 5 3
7 1 6 3
8 1 7 3
9 1 8 3
10 1 9 3
11 1 10 3
12 1 11 3
13 1 12 3
14 1 13 3
15 1 14 3
16 1 15 3
17 1 16 3
18 1 17 3
19 1 18 3
20 1 19 3
21 1 20 3
22 1 21 3
23 1 22 3
24 1 23 3
25 1 24 3
26 1 25 3
27 1 26 3
28 1 27 3
29 1 28 3
30 1 29 3
31 1 30 3
32 1 31 3
33 1 32 3
34 1 33 3
35 1 34 3
36 1 35 3
37 1 36 3
38 1 37 3
39 1 38 3
40 1 39 3
41 1 40 3
42 1 41 3
43 1 42 3
44 1 43 3
45 1 44 3
46 1 45 3
47 1 46 3
48 1 47 3
49 1 48 3
50 1 49 3
51 1 50 3
52 1 51 3
53 1 52 3
54 1 53 3
55 1 54 3
56 1 55 3
57 1 56 3
58 1 57 3
59 1 58 3
60 1 59 3
61 1 60 3
62 1 61 3
63 1 62 3
64 1 63 3
65 1 64 3
66 1 65 3
67 1 66 3
68 1 67 3
69 1 68 3
70 1 69 3
71 1 70 3
72 1 71 3
73 1 72 3
74 1 73 3
75 1 74 3
76 1 75 3
77 1 76 3
78 1 77 3
79 1 78 3
80 1 79 3
81 1 80 3
82 1 81 3
83 1 82 3
84 1 83 3
85 1 84 3
86 1 85 3
87 1 86 3
88 1 87 3
89 1 88 3
90 1 89 3
91 1 90 3
92 1 91 3
93 1 92 3
94 1 93 3
95 1 94 3
96 1 95 3
97 1 96 3
98 1 97 3
99 1 98 3
100 1 99 3
101 1 100 3
102 1 101 3
103 1 102 3
104 1 103 3
105 1 104 3
106 1 105 3
107 1 106 3
108 1 107 3
109 1 108 3
110 1 109 3
111 1 110 3
112 1 111 3
113 1 112 3
114 1 113 3
115 1 114 3
116 1 115 3
117 1 116 3
118 1 117 3
119 1 118 3
120 1 119 3
121 1 120 3
122 1 121 3

# Extension specification for setting labels:
# id set labelstring
extension LABELSET 1
1 60 LIN
2 0 PAR
3 70 LIN
4 39 LIN
5 29 LIN
6 19 LIN
7 9 LIN
8 59 LIN
9 49 LIN
10 80 LIN
11 90 LIN
12 100 LIN
13 110 LIN
14 61 LIN
15 48 LIN
16 81 LIN
17 91 LIN
18 101 LIN
19 111 LIN
20 58 LIN
21 71 LIN
22 38 LIN
23 28 LIN
24 18 LIN
25 8 LIN
26 57 LIN
27 72 LIN
28 37 LIN
29 27 LIN
30 17 LIN
31 112 LIN
32 62 LIN
33 47 LIN
34 82 LIN
35 92 LIN
36 102 LIN
37 7 LIN
38 63 LIN
39 46 LIN
40 83 LIN
41 93 LIN
42 103 LIN
43 6 LIN
44 56 LIN
45 73 LIN
46 36 LIN
47 26 LIN
48 16 LIN
49 113 LIN
50 64 LIN
51 74 LIN
52 35 LIN
53 25 LIN
54 15 LIN
55 114 LIN
56 55 LIN
57 45 LIN
58 84 LIN
59 94 LIN
60 104 LIN
61 5 LIN
62 54 LIN
63 44 LIN
64 85 LIN
65 95 LIN
66 105 LIN
67 4 LIN
68 65 LIN
69 75 LIN
70 34 LIN
71 24 LIN
72 14 LIN
73 115 LIN
74 66 LIN
75 43 LIN
76 33 LIN
77 23 LIN
78 13 LIN
79 3 LIN
80 53 LIN
81 76 LIN
82 86 LIN
83 96 LIN
84 106 LIN
85 116 LIN
86 52 LIN
87 77 LIN
88 87 LIN
89 97 LIN
90 107 LIN
91 117 LIN
92 67 LIN
93 42 LIN
94 32 LIN
95 22 LIN
96 12 LIN
97 2 LIN
98 68 LIN
99 41 LIN
100 31 LIN
101 21 LIN
102 11 LIN
103 1 LIN
104 51 LIN
105 78 LIN
106 88 LIN
107 98 LIN
108 108 LIN
109 118 LIN
110 50 LIN
111 79 LIN
112 89 LIN
113 99 LIN
114 109 LIN
115 119 LIN
116 69 LIN
117 40 LIN
118 30 LIN
119 20 LIN
120 10 LIN
121 0 LIN

# Sequence Shapes
[SHAPES]

shape_id 1
num_samples 2
1
1

shape_id 2
num_samples 2
0
0

shape_id 3
num_samples 2
0
200


[SIGNATURE]
# This is the hash of the Pulseq file, calculated right before the [SIGNATURE] section was added
# It can be reproduced/verified with md5sum if the file trimmed to the position right above [SIGNATURE]
# The new line character preceding [SIGNATURE] BELONGS to the signature (and needs to be stripped away for recalculating/verification)
Type md5
Hash a0e501195e13fa90873599fad6b3c8b7
