# Pulseq sequence file
# Created by PyPulseq

[VERSION]
major 1
minor 4
revision 2

[DEFINITIONS]
AdcRasterTime 1e-07 
BlockDurationRaster 1e-05 
GradientRasterTime 1e-05 
RadiofrequencyRasterTime 1e-06 
TotalDuration 72.12 

# Format of blocks:
# NUM DUR RF  GX  GY  GZ  ADC  EXT
[BLOCKS]
    1  10   1   0   0   0  0  0
    2 488   0   1   0   0  0  0
    3  14   2   0   0   0  0  0
    4 986   0   3   2   2  0  0
    5  14   2   0   0   0  0  0
    6 986   0   3   2   2  0  0
    7  14   2   0   0   0  0  0
    8 986   0   3   2   2  0  0
    9  14   2   0   0   0  0  0
   10 986   0   3   2   2  0  0
   11  14   2   0   0   0  0  0
   12 986   0   3   2   2  0  0
   13  14   2   0   0   0  0  0
   14 986   0   3   2   2  0  0
   15  14   2   0   0   0  0  0
   16 986   0   3   2   2  0  0
   17  14   2   0   0   0  0  0
   18 986   0   3   2   2  0  0
   19  14   2   0   0   0  0  0
   20 986   0   3   2   2  0  0
   21  14   2   0   0   0  0  0
   22 986   0   3   2   2  0  0
   23 1502   0   0   0   0  0  0
   24  10   1   0   0   0  0  0
   25 488   0   1   0   0  0  0
   26  14   2   0   0   0  0  0
   27 986   0   3   4   4  1  0
   28  14   2   0   0   0  0  0
   29 986   0   3   4   4  1  0
   30  14   2   0   0   0  0  0
   31 986   0   3   4   4  1  0
   32  14   2   0   0   0  0  0
   33 986   0   3   4   4  1  0
   34  14   2   0   0   0  0  0
   35 986   0   3   4   4  1  0
   36  14   2   0   0   0  0  0
   37 986   0   3   4   4  1  0
   38  14   2   0   0   0  0  0
   39 986   0   3   4   4  1  0
   40  14   2   0   0   0  0  0
   41 986   0   3   4   4  1  0
   42  14   2   0   0   0  0  0
   43 986   0   3   4   4  1  0
   44  14   2   0   0   0  0  0
   45 986   0   3   4   4  1  0
   46 1502   0   0   0   0  0  0
   47  10   1   0   0   0  0  0
   48 488   0   1   0   0  0  0
   49  14   2   0   0   0  0  0
   50 986   0   3   5   4  1  0
   51  14   2   0   0   0  0  0
   52 986   0   3   5   4  1  0
   53  14   2   0   0   0  0  0
   54 986   0   3   5   4  1  0
   55  14   2   0   0   0  0  0
   56 986   0   3   5   4  1  0
   57  14   2   0   0   0  0  0
   58 986   0   3   5   4  1  0
   59  14   2   0   0   0  0  0
   60 986   0   3   5   4  1  0
   61  14   2   0   0   0  0  0
   62 986   0   3   5   4  1  0
   63  14   2   0   0   0  0  0
   64 986   0   3   5   4  1  0
   65  14   2   0   0   0  0  0
   66 986   0   3   5   4  1  0
   67  14   2   0   0   0  0  0
   68 986   0   3   5   4  1  0
   69 1502   0   0   0   0  0  0
   70  10   1   0   0   0  0  0
   71 488   0   1   0   0  0  0
   72  14   2   0   0   0  0  0
   73 986   0   3   6   4  1  0
   74  14   2   0   0   0  0  0
   75 986   0   3   6   4  1  0
   76  14   2   0   0   0  0  0
   77 986   0   3   6   4  1  0
   78  14   2   0   0   0  0  0
   79 986   0   3   6   4  1  0
   80  14   2   0   0   0  0  0
   81 986   0   3   6   4  1  0
   82  14   2   0   0   0  0  0
   83 986   0   3   6   4  1  0
   84  14   2   0   0   0  0  0
   85 986   0   3   6   4  1  0
   86  14   2   0   0   0  0  0
   87 986   0   3   6   4  1  0
   88  14   2   0   0   0  0  0
   89 986   0   3   6   4  1  0
   90  14   2   0   0   0  0  0
   91 986   0   3   6   4  1  0
   92 1502   0   0   0   0  0  0
   93  10   1   0   0   0  0  0
   94 488   0   1   0   0  0  0
   95  14   2   0   0   0  0  0
   96 986   0   3   7   4  1  0
   97  14   2   0   0   0  0  0
   98 986   0   3   7   4  1  0
   99  14   2   0   0   0  0  0
  100 986   0   3   7   4  1  0
  101  14   2   0   0   0  0  0
  102 986   0   3   7   4  1  0
  103  14   2   0   0   0  0  0
  104 986   0   3   7   4  1  0
  105  14   2   0   0   0  0  0
  106 986   0   3   7   4  1  0
  107  14   2   0   0   0  0  0
  108 986   0   3   7   4  1  0
  109  14   2   0   0   0  0  0
  110 986   0   3   7   4  1  0
  111  14   2   0   0   0  0  0
  112 986   0   3   7   4  1  0
  113  14   2   0   0   0  0  0
  114 986   0   3   7   4  1  0
  115 1502   0   0   0   0  0  0
  116  10   1   0   0   0  0  0
  117 488   0   1   0   0  0  0
  118  14   2   0   0   0  0  0
  119 986   0   3   8   4  1  0
  120  14   2   0   0   0  0  0
  121 986   0   3   8   4  1  0
  122  14   2   0   0   0  0  0
  123 986   0   3   8   4  1  0
  124  14   2   0   0   0  0  0
  125 986   0   3   8   4  1  0
  126  14   2   0   0   0  0  0
  127 986   0   3   8   4  1  0
  128  14   2   0   0   0  0  0
  129 986   0   3   8   4  1  0
  130  14   2   0   0   0  0  0
  131 986   0   3   8   4  1  0
  132  14   2   0   0   0  0  0
  133 986   0   3   8   4  1  0
  134  14   2   0   0   0  0  0
  135 986   0   3   8   4  1  0
  136  14   2   0   0   0  0  0
  137 986   0   3   8   4  1  0
  138 1502   0   0   0   0  0  0
  139  10   1   0   0   0  0  0
  140 488   0   1   0   0  0  0
  141  14   2   0   0   0  0  0
  142 986   0   3   9   4  1  0
  143  14   2   0   0   0  0  0
  144 986   0   3   9   4  1  0
  145  14   2   0   0   0  0  0
  146 986   0   3   9   4  1  0
  147  14   2   0   0   0  0  0
  148 986   0   3   9   4  1  0
  149  14   2   0   0   0  0  0
  150 986   0   3   9   4  1  0
  151  14   2   0   0   0  0  0
  152 986   0   3   9   4  1  0
  153  14   2   0   0   0  0  0
  154 986   0   3   9   4  1  0
  155  14   2   0   0   0  0  0
  156 986   0   3   9   4  1  0
  157  14   2   0   0   0  0  0
  158 986   0   3   9   4  1  0
  159  14   2   0   0   0  0  0
  160 986   0   3   9   4  1  0
  161 1502   0   0   0   0  0  0
  162  10   1   0   0   0  0  0
  163 488   0   1   0   0  0  0
  164  14   2   0   0   0  0  0
  165 986   0   3  10   4  1  0
  166  14   2   0   0   0  0  0
  167 986   0   3  10   4  1  0
  168  14   2   0   0   0  0  0
  169 986   0   3  10   4  1  0
  170  14   2   0   0   0  0  0
  171 986   0   3  10   4  1  0
  172  14   2   0   0   0  0  0
  173 986   0   3  10   4  1  0
  174  14   2   0   0   0  0  0
  175 986   0   3  10   4  1  0
  176  14   2   0   0   0  0  0
  177 986   0   3  10   4  1  0
  178  14   2   0   0   0  0  0
  179 986   0   3  10   4  1  0
  180  14   2   0   0   0  0  0
  181 986   0   3  10   4  1  0
  182  14   2   0   0   0  0  0
  183 986   0   3  10   4  1  0
  184 1502   0   0   0   0  0  0
  185  10   1   0   0   0  0  0
  186 488   0   1   0   0  0  0
  187  14   2   0   0   0  0  0
  188 986   0   3  11   4  1  0
  189  14   2   0   0   0  0  0
  190 986   0   3  11   4  1  0
  191  14   2   0   0   0  0  0
  192 986   0   3  11   4  1  0
  193  14   2   0   0   0  0  0
  194 986   0   3  11   4  1  0
  195  14   2   0   0   0  0  0
  196 986   0   3  11   4  1  0
  197  14   2   0   0   0  0  0
  198 986   0   3  11   4  1  0
  199  14   2   0   0   0  0  0
  200 986   0   3  11   4  1  0
  201  14   2   0   0   0  0  0
  202 986   0   3  11   4  1  0
  203  14   2   0   0   0  0  0
  204 986   0   3  11   4  1  0
  205  14   2   0   0   0  0  0
  206 986   0   3  11   4  1  0
  207 1502   0   0   0   0  0  0
  208  10   1   0   0   0  0  0
  209 488   0   1   0   0  0  0
  210  14   2   0   0   0  0  0
  211 986   0   3  12   4  1  0
  212  14   2   0   0   0  0  0
  213 986   0   3  12   4  1  0
  214  14   2   0   0   0  0  0
  215 986   0   3  12   4  1  0
  216  14   2   0   0   0  0  0
  217 986   0   3  12   4  1  0
  218  14   2   0   0   0  0  0
  219 986   0   3  12   4  1  0
  220  14   2   0   0   0  0  0
  221 986   0   3  12   4  1  0
  222  14   2   0   0   0  0  0
  223 986   0   3  12   4  1  0
  224  14   2   0   0   0  0  0
  225 986   0   3  12   4  1  0
  226  14   2   0   0   0  0  0
  227 986   0   3  12   4  1  0
  228  14   2   0   0   0  0  0
  229 986   0   3  12   4  1  0
  230 1502   0   0   0   0  0  0
  231  10   1   0   0   0  0  0
  232 488   0   1   0   0  0  0
  233  14   2   0   0   0  0  0
  234 986   0   3  13   4  1  0
  235  14   2   0   0   0  0  0
  236 986   0   3  13   4  1  0
  237  14   2   0   0   0  0  0
  238 986   0   3  13   4  1  0
  239  14   2   0   0   0  0  0
  240 986   0   3  13   4  1  0
  241  14   2   0   0   0  0  0
  242 986   0   3  13   4  1  0
  243  14   2   0   0   0  0  0
  244 986   0   3  13   4  1  0
  245  14   2   0   0   0  0  0
  246 986   0   3  13   4  1  0
  247  14   2   0   0   0  0  0
  248 986   0   3  13   4  1  0
  249  14   2   0   0   0  0  0
  250 986   0   3  13   4  1  0
  251  14   2   0   0   0  0  0
  252 986   0   3  13   4  1  0
  253 1502   0   0   0   0  0  0
  254  10   1   0   0   0  0  0
  255 488   0   1   0   0  0  0
  256  14   2   0   0   0  0  0
  257 986   0   3  14   4  1  0
  258  14   2   0   0   0  0  0
  259 986   0   3  14   4  1  0
  260  14   2   0   0   0  0  0
  261 986   0   3  14   4  1  0
  262  14   2   0   0   0  0  0
  263 986   0   3  14   4  1  0
  264  14   2   0   0   0  0  0
  265 986   0   3  14   4  1  0
  266  14   2   0   0   0  0  0
  267 986   0   3  14   4  1  0
  268  14   2   0   0   0  0  0
  269 986   0   3  14   4  1  0
  270  14   2   0   0   0  0  0
  271 986   0   3  14   4  1  0
  272  14   2   0   0   0  0  0
  273 986   0   3  14   4  1  0
  274  14   2   0   0   0  0  0
  275 986   0   3  14   4  1  0
  276 1502   0   0   0   0  0  0
  277  10   1   0   0   0  0  0
  278 488   0   1   0   0  0  0
  279  14   2   0   0   0  0  0
  280 986   0   3  15   4  1  0
  281  14   2   0   0   0  0  0
  282 986   0   3  15   4  1  0
  283  14   2   0   0   0  0  0
  284 986   0   3  15   4  1  0
  285  14   2   0   0   0  0  0
  286 986   0   3  15   4  1  0
  287  14   2   0   0   0  0  0
  288 986   0   3  15   4  1  0
  289  14   2   0   0   0  0  0
  290 986   0   3  15   4  1  0
  291  14   2   0   0   0  0  0
  292 986   0   3  15   4  1  0
  293  14   2   0   0   0  0  0
  294 986   0   3  15   4  1  0
  295  14   2   0   0   0  0  0
  296 986   0   3  15   4  1  0
  297  14   2   0   0   0  0  0
  298 986   0   3  15   4  1  0
  299 1502   0   0   0   0  0  0
  300  10   1   0   0   0  0  0
  301 488   0   1   0   0  0  0
  302  14   2   0   0   0  0  0
  303 986   0   3  16   4  1  0
[RF]
1      4166.67 1 2 3 20 0 1.5708
2         5000 1 2 4 20 0 0

# Format of arbitrary gradients:
#   time_shape_id of 0 means default timing (stepping with grad_raster starting at 1/2 of grad_raster)
# id amplitude amp_shape_id time_shape_id delay
# ..      Hz/m       ..         ..          us
[GRADIENTS]
2            0 5 6 0
3       111318 7 6 0
4     -40479.3 8 6 0
5     -37780.7 8 6 0
6       -35082 8 6 0
7     -32383.4 8 6 0
8     -29684.8 8 6 0
9     -26986.2 8 6 0
10     -24287.6 8 6 0
11     -21588.9 8 6 0
12     -18890.3 8 6 0
13     -16191.7 8 6 0
14     -13493.1 8 6 0
15     -10794.5 8 6 0
16     -8095.85 8 6 0
17     -5397.24 8 6 0
18     -2698.62 8 6 0
19      2698.62 8 6 0
20      5397.24 8 6 0
21      8095.85 8 6 0
22      10794.5 8 6 0
23      13493.1 8 6 0
24      16191.7 8 6 0
25      18890.3 8 6 0
26      21588.9 8 6 0
27      24287.6 8 6 0
28      26986.2 8 6 0
29      29684.8 8 6 0
30      32383.4 8 6 0
31        35082 8 6 0
32      37780.7 8 6 0
33     -36431.3 8 6 0
34     -28335.5 8 6 0
35     -20239.6 8 6 0
36     -12143.8 8 6 0
37     -4047.93 8 6 0
38      4047.93 8 6 0
39      12143.8 8 6 0
40      20239.6 8 6 0
41      28335.5 8 6 0
42      36431.3 8 6 0

# Format of trapezoid gradients:
# id amplitude rise flat fall delay
# ..      Hz/m   us   us   us    us
[TRAP]
 1      73576.6 500 3880 500   0

# Format of ADC events:
# id num dwell delay freq phase
# ..  ..    ns    us   Hz   rad
[ADC]
1 300 20000 1930 0 0

# Sequence Shapes
[SHAPES]

shape_id 1
num_samples 2
1
1

shape_id 2
num_samples 2
0
0

shape_id 3
num_samples 2
0
60

shape_id 4
num_samples 2
0
100

shape_id 5
num_samples 8
0
0
6

shape_id 6
num_samples 8
0
50
193
243
743
793
936
986

shape_id 7
num_samples 8
0
1
1
0.350909091
0.350909091
1
1
0

shape_id 8
num_samples 8
0
1
1
0
0
-1
-1
0


[SIGNATURE]
# This is the hash of the Pulseq file, calculated right before the [SIGNATURE] section was added
# It can be reproduced/verified with md5sum if the file trimmed to the position right above [SIGNATURE]
# The new line character preceding [SIGNATURE] BELONGS to the signature (and needs to be stripped away for recalculating/verification)
Type md5
Hash 50e00be7bd21778a7ec18b85a81c38cf
