# Pulseq sequence file
# Created by MATLAB mr toolbox

[VERSION]
major 1
minor 3
revision 1

[DEFINITIONS]
Bandwidth [Hz] 200000 
FOV 0.01 0.01 
Name se_2d 
Nspokes 80 
Nx 200 
SliceThickness 10 
TE [s] 0.012 
TR 5 
grad_interval] 1e-05 
rf_interval] 1e-06 

# Format of blocks:
#  #  D RF  GX  GY  GZ ADC EXT
[BLOCKS]
  1  0  1   0   0   1  0  0
  2  1  0   0   0   0  0  0
  3  0  0   2   3   0  0  0
  4  0  2   0   0   0  0  0
  5  2  0   0   0   0  0  0
  6  0  0   4   5   0  0  0
  7  3  0   0   0   0  0  0
  8  0  1   0   0   1  0  0
  9  1  0   0   0   0  0  0
 10  0  0   6   7   0  0  0
 11  0  2   0   0   0  0  0
 12  2  0   0   0   0  0  0
 13  0  0   8   9   0  0  0
 14  3  0   0   0   0  0  0
 15  0  1   0   0   1  0  0
 16  1  0   0   0   0  0  0
 17  0  0   0  10   0  0  0
 18  0  2   0   0   0  0  0
 19  2  0   0   0   0  0  0
 20  0  0   0  11   0  1  0
 21  3  0   0   0   0  0  0
 22  0  1   0   0   1  0  0
 23  1  0   0   0   0  0  0
 24  0  0  12   7   0  0  0
 25  0  2   0   0   0  0  0
 26  2  0   0   0   0  0  0
 27  0  0  13   9   0  1  0
 28  3  0   0   0   0  0  0
 29  0  1   0   0   1  0  0
 30  1  0   0   0   0  0  0
 31  0  0  14   3   0  0  0
 32  0  2   0   0   0  0  0
 33  2  0   0   0   0  0  0
 34  0  0  15   5   0  1  0
 35  3  0   0   0   0  0  0
 36  0  1   0   0   1  0  0
 37  1  0   0   0   0  0  0
 38  0  0  16  17   0  0  0
 39  0  2   0   0   0  0  0
 40  2  0   0   0   0  0  0
 41  0  0  18  19   0  1  0
 42  3  0   0   0   0  0  0
 43  0  1   0   0   1  0  0
 44  1  0   0   0   0  0  0
 45  0  0  20  21   0  0  0
 46  0  2   0   0   0  0  0
 47  2  0   0   0   0  0  0
 48  0  0  22  23   0  1  0
 49  3  0   0   0   0  0  0
 50  0  1   0   0   1  0  0
 51  1  0   0   0   0  0  0
 52  0  0  24  25   0  0  0
 53  0  2   0   0   0  0  0
 54  2  0   0   0   0  0  0
 55  0  0  26  27   0  1  0
 56  3  0   0   0   0  0  0
 57  0  1   0   0   1  0  0
 58  1  0   0   0   0  0  0
 59  0  0  28  29   0  0  0
 60  0  2   0   0   0  0  0
 61  2  0   0   0   0  0  0
 62  0  0  30  31   0  1  0
 63  3  0   0   0   0  0  0
 64  0  1   0   0   1  0  0
 65  1  0   0   0   0  0  0
 66  0  0  32  33   0  0  0
 67  0  2   0   0   0  0  0
 68  2  0   0   0   0  0  0
 69  0  0  34  35   0  1  0
 70  3  0   0   0   0  0  0
 71  0  1   0   0   1  0  0
 72  1  0   0   0   0  0  0
 73  0  0  36  37   0  0  0
 74  0  2   0   0   0  0  0
 75  2  0   0   0   0  0  0
 76  0  0  38  39   0  1  0
 77  3  0   0   0   0  0  0
 78  0  1   0   0   1  0  0
 79  1  0   0   0   0  0  0
 80  0  0  40  41   0  0  0
 81  0  2   0   0   0  0  0
 82  2  0   0   0   0  0  0
 83  0  0  42  43   0  1  0
 84  3  0   0   0   0  0  0
 85  0  1   0   0   1  0  0
 86  1  0   0   0   0  0  0
 87  0  0  44  45   0  0  0
 88  0  2   0   0   0  0  0
 89  2  0   0   0   0  0  0
 90  0  0  46  47   0  1  0
 91  3  0   0   0   0  0  0
 92  0  1   0   0   1  0  0
 93  1  0   0   0   0  0  0
 94  0  0  48  49   0  0  0
 95  0  2   0   0   0  0  0
 96  2  0   0   0   0  0  0
 97  0  0  50  51   0  1  0
 98  3  0   0   0   0  0  0
 99  0  1   0   0   1  0  0
100  1  0   0   0   0  0  0
101  0  0  52  53   0  0  0
102  0  2   0   0   0  0  0
103  2  0   0   0   0  0  0
104  0  0  54  55   0  1  0
105  3  0   0   0   0  0  0
106  0  1   0   0   1  0  0
107  1  0   0   0   0  0  0
108  0  0  56  57   0  0  0
109  0  2   0   0   0  0  0
110  2  0   0   0   0  0  0
111  0  0  58  59   0  1  0
112  3  0   0   0   0  0  0
113  0  1   0   0   1  0  0
114  1  0   0   0   0  0  0
115  0  0  60  61   0  0  0
116  0  2   0   0   0  0  0
117  2  0   0   0   0  0  0
118  0  0  62  63   0  1  0
119  3  0   0   0   0  0  0
120  0  1   0   0   1  0  0
121  1  0   0   0   0  0  0
122  0  0  64  65   0  0  0
123  0  2   0   0   0  0  0
124  2  0   0   0   0  0  0
125  0  0  66  67   0  1  0
126  3  0   0   0   0  0  0
127  0  1   0   0   1  0  0
128  1  0   0   0   0  0  0
129  0  0  68  69   0  0  0
130  0  2   0   0   0  0  0
131  2  0   0   0   0  0  0
132  0  0  70  71   0  1  0
133  3  0   0   0   0  0  0
134  0  1   0   0   1  0  0
135  1  0   0   0   0  0  0
136  0  0  72  73   0  0  0
137  0  2   0   0   0  0  0
138  2  0   0   0   0  0  0
139  0  0  74  75   0  1  0
140  3  0   0   0   0  0  0
141  0  1   0   0   1  0  0
142  1  0   0   0   0  0  0
143  0  0  76  77   0  0  0
144  0  2   0   0   0  0  0
145  2  0   0   0   0  0  0
146  0  0  78  79   0  1  0
147  3  0   0   0   0  0  0
148  0  1   0   0   1  0  0
149  1  0   0   0   0  0  0
150  0  0  80  81   0  0  0
151  0  2   0   0   0  0  0
152  2  0   0   0   0  0  0
153  0  0  82  83   0  1  0
154  3  0   0   0   0  0  0
155  0  1   0   0   1  0  0
156  1  0   0   0   0  0  0
157  0  0  84  85   0  0  0
158  0  2   0   0   0  0  0
159  2  0   0   0   0  0  0
160  0  0  86  87   0  1  0
161  3  0   0   0   0  0  0
162  0  1   0   0   1  0  0
163  1  0   0   0   0  0  0
164  0  0  88  89   0  0  0
165  0  2   0   0   0  0  0
166  2  0   0   0   0  0  0
167  0  0  90  91   0  1  0
168  3  0   0   0   0  0  0
169  0  1   0   0   1  0  0
170  1  0   0   0   0  0  0
171  0  0  92  93   0  0  0
172  0  2   0   0   0  0  0
173  2  0   0   0   0  0  0
174  0  0  94  95   0  1  0
175  3  0   0   0   0  0  0
176  0  1   0   0   1  0  0
177  1  0   0   0   0  0  0
178  0  0  96  97   0  0  0
179  0  2   0   0   0  0  0
180  2  0   0   0   0  0  0
181  0  0  98  99   0  1  0
182  3  0   0   0   0  0  0
183  0  1   0   0   1  0  0
184  1  0   0   0   0  0  0
185  0  0 100 101   0  0  0
186  0  2   0   0   0  0  0
187  2  0   0   0   0  0  0
188  0  0 102 103   0  1  0
189  3  0   0   0   0  0  0
190  0  1   0   0   1  0  0
191  1  0   0   0   0  0  0
192  0  0 104 105   0  0  0
193  0  2   0   0   0  0  0
194  2  0   0   0   0  0  0
195  0  0 106 107   0  1  0
196  3  0   0   0   0  0  0
197  0  1   0   0   1  0  0
198  1  0   0   0   0  0  0
199  0  0 108 109   0  0  0
200  0  2   0   0   0  0  0
201  2  0   0   0   0  0  0
202  0  0 110 111   0  1  0
203  3  0   0   0   0  0  0
204  0  1   0   0   1  0  0
205  1  0   0   0   0  0  0
206  0  0 112 113   0  0  0
207  0  2   0   0   0  0  0
208  2  0   0   0   0  0  0
209  0  0 114 115   0  1  0
210  3  0   0   0   0  0  0
211  0  1   0   0   1  0  0
212  1  0   0   0   0  0  0
213  0  0 116 117   0  0  0
214  0  2   0   0   0  0  0
215  2  0   0   0   0  0  0
216  0  0 118 119   0  1  0
217  3  0   0   0   0  0  0
218  0  1   0   0   1  0  0
219  1  0   0   0   0  0  0
220  0  0 120 121   0  0  0
221  0  2   0   0   0  0  0
222  2  0   0   0   0  0  0
223  0  0 122 123   0  1  0
224  3  0   0   0   0  0  0
225  0  1   0   0   1  0  0
226  1  0   0   0   0  0  0
227  0  0 124 125   0  0  0
228  0  2   0   0   0  0  0
229  2  0   0   0   0  0  0
230  0  0 126 127   0  1  0
231  3  0   0   0   0  0  0
232  0  1   0   0   1  0  0
233  1  0   0   0   0  0  0
234  0  0 128 129   0  0  0
235  0  2   0   0   0  0  0
236  2  0   0   0   0  0  0
237  0  0 130 131   0  1  0
238  3  0   0   0   0  0  0
239  0  1   0   0   1  0  0
240  1  0   0   0   0  0  0
241  0  0 132 133   0  0  0
242  0  2   0   0   0  0  0
243  2  0   0   0   0  0  0
244  0  0 134 135   0  1  0
245  3  0   0   0   0  0  0
246  0  1   0   0   1  0  0
247  1  0   0   0   0  0  0
248  0  0 136 137   0  0  0
249  0  2   0   0   0  0  0
250  2  0   0   0   0  0  0
251  0  0 138 139   0  1  0
252  3  0   0   0   0  0  0
253  0  1   0   0   1  0  0
254  1  0   0   0   0  0  0
255  0  0 140 141   0  0  0
256  0  2   0   0   0  0  0
257  2  0   0   0   0  0  0
258  0  0 142 143   0  1  0
259  3  0   0   0   0  0  0
260  0  1   0   0   1  0  0
261  1  0   0   0   0  0  0
262  0  0 144 145   0  0  0
263  0  2   0   0   0  0  0
264  2  0   0   0   0  0  0
265  0  0 146 147   0  1  0
266  3  0   0   0   0  0  0
267  0  1   0   0   1  0  0
268  1  0   0   0   0  0  0
269  0  0 148 149   0  0  0
270  0  2   0   0   0  0  0
271  2  0   0   0   0  0  0
272  0  0 150 151   0  1  0
273  3  0   0   0   0  0  0
274  0  1   0   0   1  0  0
275  1  0   0   0   0  0  0
276  0  0 152 153   0  0  0
277  0  2   0   0   0  0  0
278  2  0   0   0   0  0  0
279  0  0 154 155   0  1  0
280  3  0   0   0   0  0  0
281  0  1   0   0   1  0  0
282  1  0   0   0   0  0  0
283  0  0 156   2   0  0  0
284  0  2   0   0   0  0  0
285  2  0   0   0   0  0  0
286  0  0 157   4   0  1  0
287  3  0   0   0   0  0  0
288  0  1   0   0   1  0  0
289  1  0   0   0   0  0  0
290  0  0 158   6   0  0  0
291  0  2   0   0   0  0  0
292  2  0   0   0   0  0  0
293  0  0 159   8   0  1  0
294  3  0   0   0   0  0  0
295  0  1   0   0   1  0  0
296  1  0   0   0   0  0  0
297  0  0 160   0   0  0  0
298  0  2   0   0   0  0  0
299  2  0   0   0   0  0  0
300  0  0 161   0   0  1  0
301  3  0   0   0   0  0  0
302  0  1   0   0   1  0  0
303  1  0   0   0   0  0  0
304  0  0 158  12   0  0  0
305  0  2   0   0   0  0  0
306  2  0   0   0   0  0  0
307  0  0 159  13   0  1  0
308  3  0   0   0   0  0  0
309  0  1   0   0   1  0  0
310  1  0   0   0   0  0  0
311  0  0 156  14   0  0  0
312  0  2   0   0   0  0  0
313  2  0   0   0   0  0  0
314  0  0 157  15   0  1  0
315  3  0   0   0   0  0  0
316  0  1   0   0   1  0  0
317  1  0   0   0   0  0  0
318  0  0 152  16   0  0  0
319  0  2   0   0   0  0  0
320  2  0   0   0   0  0  0
321  0  0 154  18   0  1  0
322  3  0   0   0   0  0  0
323  0  1   0   0   1  0  0
324  1  0   0   0   0  0  0
325  0  0 148  20   0  0  0
326  0  2   0   0   0  0  0
327  2  0   0   0   0  0  0
328  0  0 150  22   0  1  0
329  3  0   0   0   0  0  0
330  0  1   0   0   1  0  0
331  1  0   0   0   0  0  0
332  0  0 144  24   0  0  0
333  0  2   0   0   0  0  0
334  2  0   0   0   0  0  0
335  0  0 146  26   0  1  0
336  3  0   0   0   0  0  0
337  0  1   0   0   1  0  0
338  1  0   0   0   0  0  0
339  0  0 140  28   0  0  0
340  0  2   0   0   0  0  0
341  2  0   0   0   0  0  0
342  0  0 142  30   0  1  0
343  3  0   0   0   0  0  0
344  0  1   0   0   1  0  0
345  1  0   0   0   0  0  0
346  0  0 136  32   0  0  0
347  0  2   0   0   0  0  0
348  2  0   0   0   0  0  0
349  0  0 138  34   0  1  0
350  3  0   0   0   0  0  0
351  0  1   0   0   1  0  0
352  1  0   0   0   0  0  0
353  0  0 132  36   0  0  0
354  0  2   0   0   0  0  0
355  2  0   0   0   0  0  0
356  0  0 134  38   0  1  0
357  3  0   0   0   0  0  0
358  0  1   0   0   1  0  0
359  1  0   0   0   0  0  0
360  0  0 128  40   0  0  0
361  0  2   0   0   0  0  0
362  2  0   0   0   0  0  0
363  0  0 130  42   0  1  0
364  3  0   0   0   0  0  0
365  0  1   0   0   1  0  0
366  1  0   0   0   0  0  0
367  0  0 124  44   0  0  0
368  0  2   0   0   0  0  0
369  2  0   0   0   0  0  0
370  0  0 126  46   0  1  0
371  3  0   0   0   0  0  0
372  0  1   0   0   1  0  0
373  1  0   0   0   0  0  0
374  0  0 120  48   0  0  0
375  0  2   0   0   0  0  0
376  2  0   0   0   0  0  0
377  0  0 122  50   0  1  0
378  3  0   0   0   0  0  0
379  0  1   0   0   1  0  0
380  1  0   0   0   0  0  0
381  0  0 116  52   0  0  0
382  0  2   0   0   0  0  0
383  2  0   0   0   0  0  0
384  0  0 118  54   0  1  0
385  3  0   0   0   0  0  0
386  0  1   0   0   1  0  0
387  1  0   0   0   0  0  0
388  0  0 112  56   0  0  0
389  0  2   0   0   0  0  0
390  2  0   0   0   0  0  0
391  0  0 114  58   0  1  0
392  3  0   0   0   0  0  0
393  0  1   0   0   1  0  0
394  1  0   0   0   0  0  0
395  0  0 108  60   0  0  0
396  0  2   0   0   0  0  0
397  2  0   0   0   0  0  0
398  0  0 110  62   0  1  0
399  3  0   0   0   0  0  0
400  0  1   0   0   1  0  0
401  1  0   0   0   0  0  0
402  0  0 104  64   0  0  0
403  0  2   0   0   0  0  0
404  2  0   0   0   0  0  0
405  0  0 106  66   0  1  0
406  3  0   0   0   0  0  0
407  0  1   0   0   1  0  0
408  1  0   0   0   0  0  0
409  0  0 100  68   0  0  0
410  0  2   0   0   0  0  0
411  2  0   0   0   0  0  0
412  0  0 102  70   0  1  0
413  3  0   0   0   0  0  0
414  0  1   0   0   1  0  0
415  1  0   0   0   0  0  0
416  0  0  96  72   0  0  0
417  0  2   0   0   0  0  0
418  2  0   0   0   0  0  0
419  0  0  98  74   0  1  0
420  3  0   0   0   0  0  0
421  0  1   0   0   1  0  0
422  1  0   0   0   0  0  0
423  0  0  92  76   0  0  0
424  0  2   0   0   0  0  0
425  2  0   0   0   0  0  0
426  0  0  94  78   0  1  0
427  3  0   0   0   0  0  0
428  0  1   0   0   1  0  0
429  1  0   0   0   0  0  0
430  0  0  88  80   0  0  0
431  0  2   0   0   0  0  0
432  2  0   0   0   0  0  0
433  0  0  90  82   0  1  0
434  3  0   0   0   0  0  0
435  0  1   0   0   1  0  0
436  1  0   0   0   0  0  0
437  0  0  84  84   0  0  0
438  0  2   0   0   0  0  0
439  2  0   0   0   0  0  0
440  0  0  86  86   0  1  0
441  3  0   0   0   0  0  0
442  0  1   0   0   1  0  0
443  1  0   0   0   0  0  0
444  0  0  80  88   0  0  0
445  0  2   0   0   0  0  0
446  2  0   0   0   0  0  0
447  0  0  82  90   0  1  0
448  3  0   0   0   0  0  0
449  0  1   0   0   1  0  0
450  1  0   0   0   0  0  0
451  0  0  76  92   0  0  0
452  0  2   0   0   0  0  0
453  2  0   0   0   0  0  0
454  0  0  78  94   0  1  0
455  3  0   0   0   0  0  0
456  0  1   0   0   1  0  0
457  1  0   0   0   0  0  0
458  0  0  72  96   0  0  0
459  0  2   0   0   0  0  0
460  2  0   0   0   0  0  0
461  0  0  74  98   0  1  0
462  3  0   0   0   0  0  0
463  0  1   0   0   1  0  0
464  1  0   0   0   0  0  0
465  0  0  68 100   0  0  0
466  0  2   0   0   0  0  0
467  2  0   0   0   0  0  0
468  0  0  70 102   0  1  0
469  3  0   0   0   0  0  0
470  0  1   0   0   1  0  0
471  1  0   0   0   0  0  0
472  0  0  64 104   0  0  0
473  0  2   0   0   0  0  0
474  2  0   0   0   0  0  0
475  0  0  66 106   0  1  0
476  3  0   0   0   0  0  0
477  0  1   0   0   1  0  0
478  1  0   0   0   0  0  0
479  0  0  60 108   0  0  0
480  0  2   0   0   0  0  0
481  2  0   0   0   0  0  0
482  0  0  62 110   0  1  0
483  3  0   0   0   0  0  0
484  0  1   0   0   1  0  0
485  1  0   0   0   0  0  0
486  0  0  56 112   0  0  0
487  0  2   0   0   0  0  0
488  2  0   0   0   0  0  0
489  0  0  58 114   0  1  0
490  3  0   0   0   0  0  0
491  0  1   0   0   1  0  0
492  1  0   0   0   0  0  0
493  0  0  52 116   0  0  0
494  0  2   0   0   0  0  0
495  2  0   0   0   0  0  0
496  0  0  54 118   0  1  0
497  3  0   0   0   0  0  0
498  0  1   0   0   1  0  0
499  1  0   0   0   0  0  0
500  0  0  48 120   0  0  0
501  0  2   0   0   0  0  0
502  2  0   0   0   0  0  0
503  0  0  50 122   0  1  0
504  3  0   0   0   0  0  0
505  0  1   0   0   1  0  0
506  1  0   0   0   0  0  0
507  0  0  44 124   0  0  0
508  0  2   0   0   0  0  0
509  2  0   0   0   0  0  0
510  0  0  46 126   0  1  0
511  3  0   0   0   0  0  0
512  0  1   0   0   1  0  0
513  1  0   0   0   0  0  0
514  0  0  40 128   0  0  0
515  0  2   0   0   0  0  0
516  2  0   0   0   0  0  0
517  0  0  42 130   0  1  0
518  3  0   0   0   0  0  0
519  0  1   0   0   1  0  0
520  1  0   0   0   0  0  0
521  0  0  36 132   0  0  0
522  0  2   0   0   0  0  0
523  2  0   0   0   0  0  0
524  0  0  38 134   0  1  0
525  3  0   0   0   0  0  0
526  0  1   0   0   1  0  0
527  1  0   0   0   0  0  0
528  0  0  32 136   0  0  0
529  0  2   0   0   0  0  0
530  2  0   0   0   0  0  0
531  0  0  34 138   0  1  0
532  3  0   0   0   0  0  0
533  0  1   0   0   1  0  0
534  1  0   0   0   0  0  0
535  0  0  28 140   0  0  0
536  0  2   0   0   0  0  0
537  2  0   0   0   0  0  0
538  0  0  30 142   0  1  0
539  3  0   0   0   0  0  0
540  0  1   0   0   1  0  0
541  1  0   0   0   0  0  0
542  0  0  24 144   0  0  0
543  0  2   0   0   0  0  0
544  2  0   0   0   0  0  0
545  0  0  26 146   0  1  0
546  3  0   0   0   0  0  0
547  0  1   0   0   1  0  0
548  1  0   0   0   0  0  0
549  0  0  20 148   0  0  0
550  0  2   0   0   0  0  0
551  2  0   0   0   0  0  0
552  0  0  22 150   0  1  0
553  3  0   0   0   0  0  0
554  0  1   0   0   1  0  0
555  1  0   0   0   0  0  0
556  0  0  16 152   0  0  0
557  0  2   0   0   0  0  0
558  2  0   0   0   0  0  0
559  0  0  18 154   0  1  0
560  3  0   0   0   0  0  0
561  0  1   0   0   1  0  0
562  1  0   0   0   0  0  0
563  0  0  14 156   0  0  0
564  0  2   0   0   0  0  0
565  2  0   0   0   0  0  0
566  0  0  15 157   0  1  0
567  3  0   0   0   0  0  0
568  0  1   0   0   1  0  0
569  1  0   0   0   0  0  0
570  0  0  12 158   0  0  0
571  0  2   0   0   0  0  0
572  2  0   0   0   0  0  0
573  0  0  13 159   0  1  0
574  3  0   0   0   0  0  0

# Format of RF events:
# id amplitude mag_id phase_id delay freq phase
# ..        Hz   ....     ....    us   Hz   rad
[RF]
1         3125 1 2 500 0 0
2         3125 3 4 500 0 1.5708

# Format of trapezoid gradients:
# id amplitude rise flat fall delay
# ..      Hz/m   us   us   us    us
[TRAP]
 1        312.5  10   80  10 490
 2       629964 630  740 630   0
 3  8.00445e+06 630  740 630   0
 4       392295 400 4000 400   0
 5  4.98459e+06 400 4000 400   0
 6       315225 630  740 630   0
 7  8.02301e+06 630  740 630   0
 8       196299 400 4000 400   0
 9  4.99615e+06 400 4000 400   0
10   8.0292e+06 630  740 630   0
11        5e+06 400 4000 400   0
12      -315225 630  740 630   0
13      -196299 400 4000 400   0
14      -629964 630  740 630   0
15      -392295 400 4000 400   0
16      -943731 630  740 630   0
17  7.97354e+06 630  740 630   0
18      -587687 400 4000 400   0
19  4.96534e+06 400 4000 400   0
20 -1.25604e+06 630  740 630   0
21  7.93034e+06 630  740 630   0
22      -782172 400 4000 400   0
23  4.93844e+06 400 4000 400   0
24 -1.56642e+06 630  740 630   0
25  7.87492e+06 630  740 630   0
26      -975452 400 4000 400   0
27  4.90393e+06 400 4000 400   0
28 -1.87438e+06 630  740 630   0
29  7.80735e+06 630  740 630   0
30 -1.16723e+06 400 4000 400   0
31  4.86185e+06 400 4000 400   0
32 -2.17945e+06 630  740 630   0
33  7.72774e+06 630  740 630   0
34  -1.3572e+06 400 4000 400   0
35  4.81228e+06 400 4000 400   0
36 -2.48116e+06 630  740 630   0
37  7.63622e+06 630  740 630   0
38 -1.54508e+06 400 4000 400   0
39  4.75528e+06 400 4000 400   0
40 -2.77904e+06 630  740 630   0
41  7.53292e+06 630  740 630   0
42 -1.73059e+06 400 4000 400   0
43  4.69096e+06 400 4000 400   0
44 -3.07264e+06 630  740 630   0
45  7.41801e+06 630  740 630   0
46 -1.91342e+06 400 4000 400   0
47   4.6194e+06 400 4000 400   0
48  -3.3615e+06 630  740 630   0
49  7.29166e+06 630  740 630   0
50  -2.0933e+06 400 4000 400   0
51  4.54072e+06 400 4000 400   0
52 -3.64518e+06 630  740 630   0
53  7.15407e+06 630  740 630   0
54 -2.26995e+06 400 4000 400   0
55  4.45503e+06 400 4000 400   0
56 -3.92324e+06 630  740 630   0
57  7.00544e+06 630  740 630   0
58 -2.44311e+06 400 4000 400   0
59  4.36248e+06 400 4000 400   0
60 -4.19524e+06 630  740 630   0
61  6.84602e+06 630  740 630   0
62 -2.61249e+06 400 4000 400   0
63   4.2632e+06 400 4000 400   0
64 -4.46078e+06 630  740 630   0
65  6.67603e+06 630  740 630   0
66 -2.77785e+06 400 4000 400   0
67  4.15735e+06 400 4000 400   0
68 -4.71944e+06 630  740 630   0
69  6.49576e+06 630  740 630   0
70 -2.93893e+06 400 4000 400   0
71  4.04508e+06 400 4000 400   0
72 -4.97083e+06 630  740 630   0
73  6.30546e+06 630  740 630   0
74 -3.09547e+06 400 4000 400   0
75  3.92658e+06 400 4000 400   0
76 -5.21455e+06 630  740 630   0
77  6.10545e+06 630  740 630   0
78 -3.24724e+06 400 4000 400   0
79  3.80203e+06 400 4000 400   0
80 -5.45022e+06 630  740 630   0
81  5.89602e+06 630  740 630   0
82   -3.394e+06 400 4000 400   0
83  3.67161e+06 400 4000 400   0
84  -5.6775e+06 630  740 630   0
85   5.6775e+06 630  740 630   0
86 -3.53553e+06 400 4000 400   0
87  3.53553e+06 400 4000 400   0
88 -5.89602e+06 630  740 630   0
89  5.45022e+06 630  740 630   0
90 -3.67161e+06 400 4000 400   0
91    3.394e+06 400 4000 400   0
92 -6.10545e+06 630  740 630   0
93  5.21455e+06 630  740 630   0
94 -3.80203e+06 400 4000 400   0
95  3.24724e+06 400 4000 400   0
96 -6.30546e+06 630  740 630   0
97  4.97083e+06 630  740 630   0
98 -3.92658e+06 400 4000 400   0
99  3.09547e+06 400 4000 400   0
100 -6.49576e+06 630  740 630   0
101  4.71944e+06 630  740 630   0
102 -4.04508e+06 400 4000 400   0
103  2.93893e+06 400 4000 400   0
104 -6.67603e+06 630  740 630   0
105  4.46078e+06 630  740 630   0
106 -4.15735e+06 400 4000 400   0
107  2.77785e+06 400 4000 400   0
108 -6.84602e+06 630  740 630   0
109  4.19524e+06 630  740 630   0
110  -4.2632e+06 400 4000 400   0
111  2.61249e+06 400 4000 400   0
112 -7.00544e+06 630  740 630   0
113  3.92324e+06 630  740 630   0
114 -4.36248e+06 400 4000 400   0
115  2.44311e+06 400 4000 400   0
116 -7.15407e+06 630  740 630   0
117  3.64518e+06 630  740 630   0
118 -4.45503e+06 400 4000 400   0
119  2.26995e+06 400 4000 400   0
120 -7.29166e+06 630  740 630   0
121   3.3615e+06 630  740 630   0
122 -4.54072e+06 400 4000 400   0
123   2.0933e+06 400 4000 400   0
124 -7.41801e+06 630  740 630   0
125  3.07264e+06 630  740 630   0
126  -4.6194e+06 400 4000 400   0
127  1.91342e+06 400 4000 400   0
128 -7.53292e+06 630  740 630   0
129  2.77904e+06 630  740 630   0
130 -4.69096e+06 400 4000 400   0
131  1.73059e+06 400 4000 400   0
132 -7.63622e+06 630  740 630   0
133  2.48116e+06 630  740 630   0
134 -4.75528e+06 400 4000 400   0
135  1.54508e+06 400 4000 400   0
136 -7.72774e+06 630  740 630   0
137  2.17945e+06 630  740 630   0
138 -4.81228e+06 400 4000 400   0
139   1.3572e+06 400 4000 400   0
140 -7.80735e+06 630  740 630   0
141  1.87438e+06 630  740 630   0
142 -4.86185e+06 400 4000 400   0
143  1.16723e+06 400 4000 400   0
144 -7.87492e+06 630  740 630   0
145  1.56642e+06 630  740 630   0
146 -4.90393e+06 400 4000 400   0
147       975452 400 4000 400   0
148 -7.93034e+06 630  740 630   0
149  1.25604e+06 630  740 630   0
150 -4.93844e+06 400 4000 400   0
151       782172 400 4000 400   0
152 -7.97354e+06 630  740 630   0
153       943731 630  740 630   0
154 -4.96534e+06 400 4000 400   0
155       587687 400 4000 400   0
156 -8.00445e+06 630  740 630   0
157 -4.98459e+06 400 4000 400   0
158 -8.02301e+06 630  740 630   0
159 -4.99615e+06 400 4000 400   0
160  -8.0292e+06 630  740 630   0
161       -5e+06 400 4000 400   0

# Format of ADC events:
# id num dwell delay freq phase
# ..  ..    ns    us   Hz   rad
[ADC]
1 800 5000 400 0 0

# Format of delays:
# id delay (us)
[DELAYS]
1 3380
2 3520
3 4984810

# Sequence Shapes
[SHAPES]

shape_id 1
num_samples 80
1
0
0
77

shape_id 2
num_samples 80
0
0
78

shape_id 3
num_samples 160
1
0
0
157

shape_id 4
num_samples 160
0
0
158

