# Pulseq sequence file
# Created by MATLAB mr toolbox

[VERSION]
major 1
minor 3
revision 1

[DEFINITIONS]
Bandwidth [Hz] 266666.667 
ESP [s] 0.0085 
ETL 8 
FOV 0.01 0.01 
Name tse_2d 
Ndummy 1 
Nx 200 
Ny 128 
SliceThickness 5 
TR 5 
grad_t 10 
tx_t 1 

# Format of blocks:
#  #  D RF  GX  GY  GZ ADC EXT
[BLOCKS]
  1  0  1   0   0   1  0  0
  2  1  0   0   0   0  0  0
  3  0  0   2   0   0  0  0
  4  0  2   0   0   0  0  0
  5  2  0   0   0   0  0  0
  6  0  0   0   3   0  0  0
  7  0  0   4   0   0  1  0
  8  0  0   0   5   0  0  0
  9  3  0   0   0   0  0  0
 10  0  2   0   0   0  0  0
 11  2  0   0   0   0  0  0
 12  0  0   0   6   0  0  0
 13  0  0   4   0   0  1  0
 14  0  0   0   7   0  0  0
 15  3  0   0   0   0  0  0
 16  0  2   0   0   0  0  0
 17  2  0   0   0   0  0  0
 18  0  0   0   8   0  0  0
 19  0  0   4   0   0  1  0
 20  0  0   0   9   0  0  0
 21  3  0   0   0   0  0  0
 22  0  2   0   0   0  0  0
 23  2  0   0   0   0  0  0
 24  0  0   0  10   0  0  0
 25  0  0   4   0   0  1  0
 26  0  0   0  11   0  0  0
 27  3  0   0   0   0  0  0
 28  0  2   0   0   0  0  0
 29  2  0   0   0   0  0  0
 30  0  0   0  12   0  0  0
 31  0  0   4   0   0  1  0
 32  0  0   0  13   0  0  0
 33  3  0   0   0   0  0  0
 34  0  2   0   0   0  0  0
 35  2  0   0   0   0  0  0
 36  0  0   0  11   0  0  0
 37  0  0   4   0   0  1  0
 38  0  0   0  10   0  0  0
 39  3  0   0   0   0  0  0
 40  0  2   0   0   0  0  0
 41  2  0   0   0   0  0  0
 42  0  0   0   9   0  0  0
 43  0  0   4   0   0  1  0
 44  0  0   0   8   0  0  0
 45  3  0   0   0   0  0  0
 46  0  2   0   0   0  0  0
 47  2  0   0   0   0  0  0
 48  0  0   0   7   0  0  0
 49  0  0   4   0   0  1  0
 50  0  0   0   6   0  0  0
 51  4  0   0   0   0  0  0
 52  0  1   0   0   1  0  0
 53  1  0   0   0   0  0  0
 54  0  0   2   0   0  0  0
 55  0  2   0   0   0  0  0
 56  2  0   0   0   0  0  0
 57  0  0   0   3   0  0  0
 58  0  0   4   0   0  1  0
 59  0  0   0   5   0  0  0
 60  3  0   0   0   0  0  0
 61  0  2   0   0   0  0  0
 62  2  0   0   0   0  0  0
 63  0  0   0   6   0  0  0
 64  0  0   4   0   0  1  0
 65  0  0   0   7   0  0  0
 66  3  0   0   0   0  0  0
 67  0  2   0   0   0  0  0
 68  2  0   0   0   0  0  0
 69  0  0   0   8   0  0  0
 70  0  0   4   0   0  1  0
 71  0  0   0   9   0  0  0
 72  3  0   0   0   0  0  0
 73  0  2   0   0   0  0  0
 74  2  0   0   0   0  0  0
 75  0  0   0  10   0  0  0
 76  0  0   4   0   0  1  0
 77  0  0   0  11   0  0  0
 78  3  0   0   0   0  0  0
 79  0  2   0   0   0  0  0
 80  2  0   0   0   0  0  0
 81  0  0   0  12   0  0  0
 82  0  0   4   0   0  1  0
 83  0  0   0  13   0  0  0
 84  3  0   0   0   0  0  0
 85  0  2   0   0   0  0  0
 86  2  0   0   0   0  0  0
 87  0  0   0  11   0  0  0
 88  0  0   4   0   0  1  0
 89  0  0   0  10   0  0  0
 90  3  0   0   0   0  0  0
 91  0  2   0   0   0  0  0
 92  2  0   0   0   0  0  0
 93  0  0   0   9   0  0  0
 94  0  0   4   0   0  1  0
 95  0  0   0   8   0  0  0
 96  3  0   0   0   0  0  0
 97  0  2   0   0   0  0  0
 98  2  0   0   0   0  0  0
 99  0  0   0   7   0  0  0
100  0  0   4   0   0  1  0
101  0  0   0   6   0  0  0
102  4  0   0   0   0  0  0
103  0  1   0   0   1  0  0
104  1  0   0   0   0  0  0
105  0  0   2   0   0  0  0
106  0  2   0   0   0  0  0
107  2  0   0   0   0  0  0
108  0  0   0  14   0  0  0
109  0  0   4   0   0  1  0
110  0  0   0  15   0  0  0
111  3  0   0   0   0  0  0
112  0  2   0   0   0  0  0
113  2  0   0   0   0  0  0
114  0  0   0  16   0  0  0
115  0  0   4   0   0  1  0
116  0  0   0  17   0  0  0
117  3  0   0   0   0  0  0
118  0  2   0   0   0  0  0
119  2  0   0   0   0  0  0
120  0  0   0  18   0  0  0
121  0  0   4   0   0  1  0
122  0  0   0  19   0  0  0
123  3  0   0   0   0  0  0
124  0  2   0   0   0  0  0
125  2  0   0   0   0  0  0
126  0  0   0  20   0  0  0
127  0  0   4   0   0  1  0
128  0  0   0  21   0  0  0
129  3  0   0   0   0  0  0
130  0  2   0   0   0  0  0
131  2  0   0   0   0  0  0
132  0  0   0  22   0  0  0
133  0  0   4   0   0  1  0
134  0  0   0  23   0  0  0
135  3  0   0   0   0  0  0
136  0  2   0   0   0  0  0
137  2  0   0   0   0  0  0
138  0  0   0  24   0  0  0
139  0  0   4   0   0  1  0
140  0  0   0  25   0  0  0
141  3  0   0   0   0  0  0
142  0  2   0   0   0  0  0
143  2  0   0   0   0  0  0
144  0  0   0  26   0  0  0
145  0  0   4   0   0  1  0
146  0  0   0  27   0  0  0
147  3  0   0   0   0  0  0
148  0  2   0   0   0  0  0
149  2  0   0   0   0  0  0
150  0  0   0  28   0  0  0
151  0  0   4   0   0  1  0
152  0  0   0  29   0  0  0
153  4  0   0   0   0  0  0
154  0  1   0   0   1  0  0
155  1  0   0   0   0  0  0
156  0  0   2   0   0  0  0
157  0  2   0   0   0  0  0
158  2  0   0   0   0  0  0
159  0  0   0  30   0  0  0
160  0  0   4   0   0  1  0
161  0  0   0  31   0  0  0
162  3  0   0   0   0  0  0
163  0  2   0   0   0  0  0
164  2  0   0   0   0  0  0
165  0  0   0  32   0  0  0
166  0  0   4   0   0  1  0
167  0  0   0  33   0  0  0
168  3  0   0   0   0  0  0
169  0  2   0   0   0  0  0
170  2  0   0   0   0  0  0
171  0  0   0  34   0  0  0
172  0  0   4   0   0  1  0
173  0  0   0  35   0  0  0
174  3  0   0   0   0  0  0
175  0  2   0   0   0  0  0
176  2  0   0   0   0  0  0
177  0  0   0  36   0  0  0
178  0  0   4   0   0  1  0
179  0  0   0  37   0  0  0
180  3  0   0   0   0  0  0
181  0  2   0   0   0  0  0
182  2  0   0   0   0  0  0
183  0  0   0  38   0  0  0
184  0  0   4   0   0  1  0
185  0  0   0  39   0  0  0
186  3  0   0   0   0  0  0
187  0  2   0   0   0  0  0
188  2  0   0   0   0  0  0
189  0  0   0  40   0  0  0
190  0  0   4   0   0  1  0
191  0  0   0  41   0  0  0
192  3  0   0   0   0  0  0
193  0  2   0   0   0  0  0
194  2  0   0   0   0  0  0
195  0  0   0  42   0  0  0
196  0  0   4   0   0  1  0
197  0  0   0  43   0  0  0
198  3  0   0   0   0  0  0
199  0  2   0   0   0  0  0
200  2  0   0   0   0  0  0
201  0  0   0  44   0  0  0
202  0  0   4   0   0  1  0
203  0  0   0  45   0  0  0
204  4  0   0   0   0  0  0
205  0  1   0   0   1  0  0
206  1  0   0   0   0  0  0
207  0  0   2   0   0  0  0
208  0  2   0   0   0  0  0
209  2  0   0   0   0  0  0
210  0  0   0  46   0  0  0
211  0  0   4   0   0  1  0
212  0  0   0  47   0  0  0
213  3  0   0   0   0  0  0
214  0  2   0   0   0  0  0
215  2  0   0   0   0  0  0
216  0  0   0  48   0  0  0
217  0  0   4   0   0  1  0
218  0  0   0  49   0  0  0
219  3  0   0   0   0  0  0
220  0  2   0   0   0  0  0
221  2  0   0   0   0  0  0
222  0  0   0  50   0  0  0
223  0  0   4   0   0  1  0
224  0  0   0  51   0  0  0
225  3  0   0   0   0  0  0
226  0  2   0   0   0  0  0
227  2  0   0   0   0  0  0
228  0  0   0  52   0  0  0
229  0  0   4   0   0  1  0
230  0  0   0  53   0  0  0
231  3  0   0   0   0  0  0
232  0  2   0   0   0  0  0
233  2  0   0   0   0  0  0
234  0  0   0  54   0  0  0
235  0  0   4   0   0  1  0
236  0  0   0  55   0  0  0
237  3  0   0   0   0  0  0
238  0  2   0   0   0  0  0
239  2  0   0   0   0  0  0
240  0  0   0  56   0  0  0
241  0  0   4   0   0  1  0
242  0  0   0  57   0  0  0
243  3  0   0   0   0  0  0
244  0  2   0   0   0  0  0
245  2  0   0   0   0  0  0
246  0  0   0  58   0  0  0
247  0  0   4   0   0  1  0
248  0  0   0  59   0  0  0
249  3  0   0   0   0  0  0
250  0  2   0   0   0  0  0
251  2  0   0   0   0  0  0
252  0  0   0  60   0  0  0
253  0  0   4   0   0  1  0
254  0  0   0  61   0  0  0
255  4  0   0   0   0  0  0
256  0  1   0   0   1  0  0
257  1  0   0   0   0  0  0
258  0  0   2   0   0  0  0
259  0  2   0   0   0  0  0
260  2  0   0   0   0  0  0
261  0  0   0  62   0  0  0
262  0  0   4   0   0  1  0
263  0  0   0  63   0  0  0
264  3  0   0   0   0  0  0
265  0  2   0   0   0  0  0
266  2  0   0   0   0  0  0
267  0  0   0  64   0  0  0
268  0  0   4   0   0  1  0
269  0  0   0  65   0  0  0
270  3  0   0   0   0  0  0
271  0  2   0   0   0  0  0
272  2  0   0   0   0  0  0
273  0  0   0  66   0  0  0
274  0  0   4   0   0  1  0
275  0  0   0  67   0  0  0
276  3  0   0   0   0  0  0
277  0  2   0   0   0  0  0
278  2  0   0   0   0  0  0
279  0  0   0  68   0  0  0
280  0  0   4   0   0  1  0
281  0  0   0  69   0  0  0
282  3  0   0   0   0  0  0
283  0  2   0   0   0  0  0
284  2  0   0   0   0  0  0
285  0  0   0  70   0  0  0
286  0  0   4   0   0  1  0
287  0  0   0  71   0  0  0
288  3  0   0   0   0  0  0
289  0  2   0   0   0  0  0
290  2  0   0   0   0  0  0
291  0  0   0  72   0  0  0
292  0  0   4   0   0  1  0
293  0  0   0  73   0  0  0
294  3  0   0   0   0  0  0
295  0  2   0   0   0  0  0
296  2  0   0   0   0  0  0
297  0  0   0  74   0  0  0
298  0  0   4   0   0  1  0
299  0  0   0  75   0  0  0
300  3  0   0   0   0  0  0
301  0  2   0   0   0  0  0
302  2  0   0   0   0  0  0
303  0  0   0  76   0  0  0
304  0  0   4   0   0  1  0
305  0  0   0  77   0  0  0
306  4  0   0   0   0  0  0
307  0  1   0   0   1  0  0
308  1  0   0   0   0  0  0
309  0  0   2   0   0  0  0
310  0  2   0   0   0  0  0
311  2  0   0   0   0  0  0
312  0  0   0  78   0  0  0
313  0  0   4   0   0  1  0
314  0  0   0  79   0  0  0
315  3  0   0   0   0  0  0
316  0  2   0   0   0  0  0
317  2  0   0   0   0  0  0
318  0  0   0  80   0  0  0
319  0  0   4   0   0  1  0
320  0  0   0  81   0  0  0
321  3  0   0   0   0  0  0
322  0  2   0   0   0  0  0
323  2  0   0   0   0  0  0
324  0  0   0  82   0  0  0
325  0  0   4   0   0  1  0
326  0  0   0  83   0  0  0
327  3  0   0   0   0  0  0
328  0  2   0   0   0  0  0
329  2  0   0   0   0  0  0
330  0  0   0  84   0  0  0
331  0  0   4   0   0  1  0
332  0  0   0  85   0  0  0
333  3  0   0   0   0  0  0
334  0  2   0   0   0  0  0
335  2  0   0   0   0  0  0
336  0  0   0  86   0  0  0
337  0  0   4   0   0  1  0
338  0  0   0  87   0  0  0
339  3  0   0   0   0  0  0
340  0  2   0   0   0  0  0
341  2  0   0   0   0  0  0
342  0  0   0  88   0  0  0
343  0  0   4   0   0  1  0
344  0  0   0  89   0  0  0
345  3  0   0   0   0  0  0
346  0  2   0   0   0  0  0
347  2  0   0   0   0  0  0
348  0  0   0  90   0  0  0
349  0  0   4   0   0  1  0
350  0  0   0  91   0  0  0
351  3  0   0   0   0  0  0
352  0  2   0   0   0  0  0
353  2  0   0   0   0  0  0
354  0  0   0  92   0  0  0
355  0  0   4   0   0  1  0
356  0  0   0  93   0  0  0
357  4  0   0   0   0  0  0
358  0  1   0   0   1  0  0
359  1  0   0   0   0  0  0
360  0  0   2   0   0  0  0
361  0  2   0   0   0  0  0
362  2  0   0   0   0  0  0
363  0  0   0  94   0  0  0
364  0  0   4   0   0  1  0
365  0  0   0  95   0  0  0
366  3  0   0   0   0  0  0
367  0  2   0   0   0  0  0
368  2  0   0   0   0  0  0
369  0  0   0  96   0  0  0
370  0  0   4   0   0  1  0
371  0  0   0  97   0  0  0
372  3  0   0   0   0  0  0
373  0  2   0   0   0  0  0
374  2  0   0   0   0  0  0
375  0  0   0  98   0  0  0
376  0  0   4   0   0  1  0
377  0  0   0  99   0  0  0
378  3  0   0   0   0  0  0
379  0  2   0   0   0  0  0
380  2  0   0   0   0  0  0
381  0  0   0 100   0  0  0
382  0  0   4   0   0  1  0
383  0  0   0 101   0  0  0
384  3  0   0   0   0  0  0
385  0  2   0   0   0  0  0
386  2  0   0   0   0  0  0
387  0  0   0 102   0  0  0
388  0  0   4   0   0  1  0
389  0  0   0 103   0  0  0
390  3  0   0   0   0  0  0
391  0  2   0   0   0  0  0
392  2  0   0   0   0  0  0
393  0  0   0 104   0  0  0
394  0  0   4   0   0  1  0
395  0  0   0 105   0  0  0
396  3  0   0   0   0  0  0
397  0  2   0   0   0  0  0
398  2  0   0   0   0  0  0
399  0  0   0 106   0  0  0
400  0  0   4   0   0  1  0
401  0  0   0 107   0  0  0
402  3  0   0   0   0  0  0
403  0  2   0   0   0  0  0
404  2  0   0   0   0  0  0
405  0  0   0 108   0  0  0
406  0  0   4   0   0  1  0
407  0  0   0 109   0  0  0
408  4  0   0   0   0  0  0
409  0  1   0   0   1  0  0
410  1  0   0   0   0  0  0
411  0  0   2   0   0  0  0
412  0  2   0   0   0  0  0
413  2  0   0   0   0  0  0
414  0  0   0 110   0  0  0
415  0  0   4   0   0  1  0
416  0  0   0 111   0  0  0
417  3  0   0   0   0  0  0
418  0  2   0   0   0  0  0
419  2  0   0   0   0  0  0
420  0  0   0 112   0  0  0
421  0  0   4   0   0  1  0
422  0  0   0 113   0  0  0
423  3  0   0   0   0  0  0
424  0  2   0   0   0  0  0
425  2  0   0   0   0  0  0
426  0  0   0 114   0  0  0
427  0  0   4   0   0  1  0
428  0  0   0 115   0  0  0
429  3  0   0   0   0  0  0
430  0  2   0   0   0  0  0
431  2  0   0   0   0  0  0
432  0  0   0 116   0  0  0
433  0  0   4   0   0  1  0
434  0  0   0 117   0  0  0
435  3  0   0   0   0  0  0
436  0  2   0   0   0  0  0
437  2  0   0   0   0  0  0
438  0  0   0 118   0  0  0
439  0  0   4   0   0  1  0
440  0  0   0 119   0  0  0
441  3  0   0   0   0  0  0
442  0  2   0   0   0  0  0
443  2  0   0   0   0  0  0
444  0  0   0 120   0  0  0
445  0  0   4   0   0  1  0
446  0  0   0 121   0  0  0
447  3  0   0   0   0  0  0
448  0  2   0   0   0  0  0
449  2  0   0   0   0  0  0
450  0  0   0 122   0  0  0
451  0  0   4   0   0  1  0
452  0  0   0 123   0  0  0
453  3  0   0   0   0  0  0
454  0  2   0   0   0  0  0
455  2  0   0   0   0  0  0
456  0  0   0 124   0  0  0
457  0  0   4   0   0  1  0
458  0  0   0 125   0  0  0
459  4  0   0   0   0  0  0
460  0  1   0   0   1  0  0
461  1  0   0   0   0  0  0
462  0  0   2   0   0  0  0
463  0  2   0   0   0  0  0
464  2  0   0   0   0  0  0
465  0  0   0 126   0  0  0
466  0  0   4   0   0  1  0
467  0  0   0 127   0  0  0
468  3  0   0   0   0  0  0
469  0  2   0   0   0  0  0
470  2  0   0   0   0  0  0
471  0  0   0 128   0  0  0
472  0  0   4   0   0  1  0
473  0  0   0 129   0  0  0
474  3  0   0   0   0  0  0
475  0  2   0   0   0  0  0
476  2  0   0   0   0  0  0
477  0  0   0 130   0  0  0
478  0  0   4   0   0  1  0
479  0  0   0 131   0  0  0
480  3  0   0   0   0  0  0
481  0  2   0   0   0  0  0
482  2  0   0   0   0  0  0
483  0  0   0 132   0  0  0
484  0  0   4   0   0  1  0
485  0  0   0 133   0  0  0
486  3  0   0   0   0  0  0
487  0  2   0   0   0  0  0
488  2  0   0   0   0  0  0
489  0  0   0 133   0  0  0
490  0  0   4   0   0  1  0
491  0  0   0 132   0  0  0
492  3  0   0   0   0  0  0
493  0  2   0   0   0  0  0
494  2  0   0   0   0  0  0
495  0  0   0 131   0  0  0
496  0  0   4   0   0  1  0
497  0  0   0 130   0  0  0
498  3  0   0   0   0  0  0
499  0  2   0   0   0  0  0
500  2  0   0   0   0  0  0
501  0  0   0 129   0  0  0
502  0  0   4   0   0  1  0
503  0  0   0 128   0  0  0
504  3  0   0   0   0  0  0
505  0  2   0   0   0  0  0
506  2  0   0   0   0  0  0
507  0  0   0 127   0  0  0
508  0  0   4   0   0  1  0
509  0  0   0 126   0  0  0
510  4  0   0   0   0  0  0
511  0  1   0   0   1  0  0
512  1  0   0   0   0  0  0
513  0  0   2   0   0  0  0
514  0  2   0   0   0  0  0
515  2  0   0   0   0  0  0
516  0  0   0 125   0  0  0
517  0  0   4   0   0  1  0
518  0  0   0 124   0  0  0
519  3  0   0   0   0  0  0
520  0  2   0   0   0  0  0
521  2  0   0   0   0  0  0
522  0  0   0 123   0  0  0
523  0  0   4   0   0  1  0
524  0  0   0 122   0  0  0
525  3  0   0   0   0  0  0
526  0  2   0   0   0  0  0
527  2  0   0   0   0  0  0
528  0  0   0 121   0  0  0
529  0  0   4   0   0  1  0
530  0  0   0 120   0  0  0
531  3  0   0   0   0  0  0
532  0  2   0   0   0  0  0
533  2  0   0   0   0  0  0
534  0  0   0 119   0  0  0
535  0  0   4   0   0  1  0
536  0  0   0 118   0  0  0
537  3  0   0   0   0  0  0
538  0  2   0   0   0  0  0
539  2  0   0   0   0  0  0
540  0  0   0 117   0  0  0
541  0  0   4   0   0  1  0
542  0  0   0 116   0  0  0
543  3  0   0   0   0  0  0
544  0  2   0   0   0  0  0
545  2  0   0   0   0  0  0
546  0  0   0 115   0  0  0
547  0  0   4   0   0  1  0
548  0  0   0 114   0  0  0
549  3  0   0   0   0  0  0
550  0  2   0   0   0  0  0
551  2  0   0   0   0  0  0
552  0  0   0 113   0  0  0
553  0  0   4   0   0  1  0
554  0  0   0 112   0  0  0
555  3  0   0   0   0  0  0
556  0  2   0   0   0  0  0
557  2  0   0   0   0  0  0
558  0  0   0 111   0  0  0
559  0  0   4   0   0  1  0
560  0  0   0 110   0  0  0
561  4  0   0   0   0  0  0
562  0  1   0   0   1  0  0
563  1  0   0   0   0  0  0
564  0  0   2   0   0  0  0
565  0  2   0   0   0  0  0
566  2  0   0   0   0  0  0
567  0  0   0 109   0  0  0
568  0  0   4   0   0  1  0
569  0  0   0 108   0  0  0
570  3  0   0   0   0  0  0
571  0  2   0   0   0  0  0
572  2  0   0   0   0  0  0
573  0  0   0 107   0  0  0
574  0  0   4   0   0  1  0
575  0  0   0 106   0  0  0
576  3  0   0   0   0  0  0
577  0  2   0   0   0  0  0
578  2  0   0   0   0  0  0
579  0  0   0 105   0  0  0
580  0  0   4   0   0  1  0
581  0  0   0 104   0  0  0
582  3  0   0   0   0  0  0
583  0  2   0   0   0  0  0
584  2  0   0   0   0  0  0
585  0  0   0 103   0  0  0
586  0  0   4   0   0  1  0
587  0  0   0 102   0  0  0
588  3  0   0   0   0  0  0
589  0  2   0   0   0  0  0
590  2  0   0   0   0  0  0
591  0  0   0 101   0  0  0
592  0  0   4   0   0  1  0
593  0  0   0 100   0  0  0
594  3  0   0   0   0  0  0
595  0  2   0   0   0  0  0
596  2  0   0   0   0  0  0
597  0  0   0  99   0  0  0
598  0  0   4   0   0  1  0
599  0  0   0  98   0  0  0
600  3  0   0   0   0  0  0
601  0  2   0   0   0  0  0
602  2  0   0   0   0  0  0
603  0  0   0  97   0  0  0
604  0  0   4   0   0  1  0
605  0  0   0  96   0  0  0
606  3  0   0   0   0  0  0
607  0  2   0   0   0  0  0
608  2  0   0   0   0  0  0
609  0  0   0  95   0  0  0
610  0  0   4   0   0  1  0
611  0  0   0  94   0  0  0
612  4  0   0   0   0  0  0
613  0  1   0   0   1  0  0
614  1  0   0   0   0  0  0
615  0  0   2   0   0  0  0
616  0  2   0   0   0  0  0
617  2  0   0   0   0  0  0
618  0  0   0  93   0  0  0
619  0  0   4   0   0  1  0
620  0  0   0  92   0  0  0
621  3  0   0   0   0  0  0
622  0  2   0   0   0  0  0
623  2  0   0   0   0  0  0
624  0  0   0  91   0  0  0
625  0  0   4   0   0  1  0
626  0  0   0  90   0  0  0
627  3  0   0   0   0  0  0
628  0  2   0   0   0  0  0
629  2  0   0   0   0  0  0
630  0  0   0  89   0  0  0
631  0  0   4   0   0  1  0
632  0  0   0  88   0  0  0
633  3  0   0   0   0  0  0
634  0  2   0   0   0  0  0
635  2  0   0   0   0  0  0
636  0  0   0  87   0  0  0
637  0  0   4   0   0  1  0
638  0  0   0  86   0  0  0
639  3  0   0   0   0  0  0
640  0  2   0   0   0  0  0
641  2  0   0   0   0  0  0
642  0  0   0  85   0  0  0
643  0  0   4   0   0  1  0
644  0  0   0  84   0  0  0
645  3  0   0   0   0  0  0
646  0  2   0   0   0  0  0
647  2  0   0   0   0  0  0
648  0  0   0  83   0  0  0
649  0  0   4   0   0  1  0
650  0  0   0  82   0  0  0
651  3  0   0   0   0  0  0
652  0  2   0   0   0  0  0
653  2  0   0   0   0  0  0
654  0  0   0  81   0  0  0
655  0  0   4   0   0  1  0
656  0  0   0  80   0  0  0
657  3  0   0   0   0  0  0
658  0  2   0   0   0  0  0
659  2  0   0   0   0  0  0
660  0  0   0  79   0  0  0
661  0  0   4   0   0  1  0
662  0  0   0  78   0  0  0
663  4  0   0   0   0  0  0
664  0  1   0   0   1  0  0
665  1  0   0   0   0  0  0
666  0  0   2   0   0  0  0
667  0  2   0   0   0  0  0
668  2  0   0   0   0  0  0
669  0  0   0  77   0  0  0
670  0  0   4   0   0  1  0
671  0  0   0  76   0  0  0
672  3  0   0   0   0  0  0
673  0  2   0   0   0  0  0
674  2  0   0   0   0  0  0
675  0  0   0  75   0  0  0
676  0  0   4   0   0  1  0
677  0  0   0  74   0  0  0
678  3  0   0   0   0  0  0
679  0  2   0   0   0  0  0
680  2  0   0   0   0  0  0
681  0  0   0  73   0  0  0
682  0  0   4   0   0  1  0
683  0  0   0  72   0  0  0
684  3  0   0   0   0  0  0
685  0  2   0   0   0  0  0
686  2  0   0   0   0  0  0
687  0  0   0  71   0  0  0
688  0  0   4   0   0  1  0
689  0  0   0  70   0  0  0
690  3  0   0   0   0  0  0
691  0  2   0   0   0  0  0
692  2  0   0   0   0  0  0
693  0  0   0  69   0  0  0
694  0  0   4   0   0  1  0
695  0  0   0  68   0  0  0
696  3  0   0   0   0  0  0
697  0  2   0   0   0  0  0
698  2  0   0   0   0  0  0
699  0  0   0  67   0  0  0
700  0  0   4   0   0  1  0
701  0  0   0  66   0  0  0
702  3  0   0   0   0  0  0
703  0  2   0   0   0  0  0
704  2  0   0   0   0  0  0
705  0  0   0  65   0  0  0
706  0  0   4   0   0  1  0
707  0  0   0  64   0  0  0
708  3  0   0   0   0  0  0
709  0  2   0   0   0  0  0
710  2  0   0   0   0  0  0
711  0  0   0  63   0  0  0
712  0  0   4   0   0  1  0
713  0  0   0  62   0  0  0
714  4  0   0   0   0  0  0
715  0  1   0   0   1  0  0
716  1  0   0   0   0  0  0
717  0  0   2   0   0  0  0
718  0  2   0   0   0  0  0
719  2  0   0   0   0  0  0
720  0  0   0  61   0  0  0
721  0  0   4   0   0  1  0
722  0  0   0  60   0  0  0
723  3  0   0   0   0  0  0
724  0  2   0   0   0  0  0
725  2  0   0   0   0  0  0
726  0  0   0  59   0  0  0
727  0  0   4   0   0  1  0
728  0  0   0  58   0  0  0
729  3  0   0   0   0  0  0
730  0  2   0   0   0  0  0
731  2  0   0   0   0  0  0
732  0  0   0  57   0  0  0
733  0  0   4   0   0  1  0
734  0  0   0  56   0  0  0
735  3  0   0   0   0  0  0
736  0  2   0   0   0  0  0
737  2  0   0   0   0  0  0
738  0  0   0  55   0  0  0
739  0  0   4   0   0  1  0
740  0  0   0  54   0  0  0
741  3  0   0   0   0  0  0
742  0  2   0   0   0  0  0
743  2  0   0   0   0  0  0
744  0  0   0  53   0  0  0
745  0  0   4   0   0  1  0
746  0  0   0  52   0  0  0
747  3  0   0   0   0  0  0
748  0  2   0   0   0  0  0
749  2  0   0   0   0  0  0
750  0  0   0  51   0  0  0
751  0  0   4   0   0  1  0
752  0  0   0  50   0  0  0
753  3  0   0   0   0  0  0
754  0  2   0   0   0  0  0
755  2  0   0   0   0  0  0
756  0  0   0  49   0  0  0
757  0  0   4   0   0  1  0
758  0  0   0  48   0  0  0
759  3  0   0   0   0  0  0
760  0  2   0   0   0  0  0
761  2  0   0   0   0  0  0
762  0  0   0  47   0  0  0
763  0  0   4   0   0  1  0
764  0  0   0  46   0  0  0
765  4  0   0   0   0  0  0
766  0  1   0   0   1  0  0
767  1  0   0   0   0  0  0
768  0  0   2   0   0  0  0
769  0  2   0   0   0  0  0
770  2  0   0   0   0  0  0
771  0  0   0  45   0  0  0
772  0  0   4   0   0  1  0
773  0  0   0  44   0  0  0
774  3  0   0   0   0  0  0
775  0  2   0   0   0  0  0
776  2  0   0   0   0  0  0
777  0  0   0  43   0  0  0
778  0  0   4   0   0  1  0
779  0  0   0  42   0  0  0
780  3  0   0   0   0  0  0
781  0  2   0   0   0  0  0
782  2  0   0   0   0  0  0
783  0  0   0  41   0  0  0
784  0  0   4   0   0  1  0
785  0  0   0  40   0  0  0
786  3  0   0   0   0  0  0
787  0  2   0   0   0  0  0
788  2  0   0   0   0  0  0
789  0  0   0  39   0  0  0
790  0  0   4   0   0  1  0
791  0  0   0  38   0  0  0
792  3  0   0   0   0  0  0
793  0  2   0   0   0  0  0
794  2  0   0   0   0  0  0
795  0  0   0  37   0  0  0
796  0  0   4   0   0  1  0
797  0  0   0  36   0  0  0
798  3  0   0   0   0  0  0
799  0  2   0   0   0  0  0
800  2  0   0   0   0  0  0
801  0  0   0  35   0  0  0
802  0  0   4   0   0  1  0
803  0  0   0  34   0  0  0
804  3  0   0   0   0  0  0
805  0  2   0   0   0  0  0
806  2  0   0   0   0  0  0
807  0  0   0  33   0  0  0
808  0  0   4   0   0  1  0
809  0  0   0  32   0  0  0
810  3  0   0   0   0  0  0
811  0  2   0   0   0  0  0
812  2  0   0   0   0  0  0
813  0  0   0  31   0  0  0
814  0  0   4   0   0  1  0
815  0  0   0  30   0  0  0
816  4  0   0   0   0  0  0
817  0  1   0   0   1  0  0
818  1  0   0   0   0  0  0
819  0  0   2   0   0  0  0
820  0  2   0   0   0  0  0
821  2  0   0   0   0  0  0
822  0  0   0  29   0  0  0
823  0  0   4   0   0  1  0
824  0  0   0  28   0  0  0
825  3  0   0   0   0  0  0
826  0  2   0   0   0  0  0
827  2  0   0   0   0  0  0
828  0  0   0  27   0  0  0
829  0  0   4   0   0  1  0
830  0  0   0  26   0  0  0
831  3  0   0   0   0  0  0
832  0  2   0   0   0  0  0
833  2  0   0   0   0  0  0
834  0  0   0  25   0  0  0
835  0  0   4   0   0  1  0
836  0  0   0  24   0  0  0
837  3  0   0   0   0  0  0
838  0  2   0   0   0  0  0
839  2  0   0   0   0  0  0
840  0  0   0  23   0  0  0
841  0  0   4   0   0  1  0
842  0  0   0  22   0  0  0
843  3  0   0   0   0  0  0
844  0  2   0   0   0  0  0
845  2  0   0   0   0  0  0
846  0  0   0  21   0  0  0
847  0  0   4   0   0  1  0
848  0  0   0  20   0  0  0
849  3  0   0   0   0  0  0
850  0  2   0   0   0  0  0
851  2  0   0   0   0  0  0
852  0  0   0  19   0  0  0
853  0  0   4   0   0  1  0
854  0  0   0  18   0  0  0
855  3  0   0   0   0  0  0
856  0  2   0   0   0  0  0
857  2  0   0   0   0  0  0
858  0  0   0  17   0  0  0
859  0  0   4   0   0  1  0
860  0  0   0  16   0  0  0
861  3  0   0   0   0  0  0
862  0  2   0   0   0  0  0
863  2  0   0   0   0  0  0
864  0  0   0  15   0  0  0
865  0  0   4   0   0  1  0
866  0  0   0  14   0  0  0

# Format of RF events:
# id amplitude mag_id phase_id delay freq phase
# ..        Hz   ....     ....    us   Hz   rad
[RF]
1         2500 1 2 200 0 0
2         2500 3 4 200 0 1.5708

# Format of trapezoid gradients:
# id amplitude rise flat fall delay
# ..      Hz/m   us   us   us    us
[TRAP]
 1          500  10  100  10 190
 2  3.23232e+06 100 3200 100   0
 3 -4.70588e+06 140 1220 140   0
 4  6.66667e+06 200 3000 200   0
 5  4.70588e+06 140 1220 140   0
 6 -3.45324e+06 110 1280 110   0
 7  3.45324e+06 110 1280 110   0
 8 -2.23776e+06  70 1360  70   0
 9  2.23776e+06  70 1360  70   0
10 -1.09589e+06  40 1420  40   0
11  1.09589e+06  40 1420  40   0
12            0  10 1480  10   0
13           -0  10 1480  10   0
14 -4.63235e+06 140 1220 140   0
15  4.63235e+06 140 1220 140   0
16 -3.35714e+06 100 1300 100   0
17  3.35714e+06 100 1300 100   0
18 -2.16783e+06  70 1360  70   0
19  2.16783e+06  70 1360  70   0
20 -1.02041e+06  30 1440  30   0
21  1.02041e+06  30 1440  30   0
22      67114.1  10 1480  10   0
23     -67114.1  10 1480  10   0
24  1.16438e+06  40 1420  40   0
25 -1.16438e+06  40 1420  40   0
26  2.30769e+06  70 1360  70   0
27 -2.30769e+06  70 1360  70   0
28  3.52518e+06 110 1280 110   0
29 -3.52518e+06 110 1280 110   0
30 -4.55882e+06 140 1220 140   0
31  4.55882e+06 140 1220 140   0
32 -3.28571e+06 100 1300 100   0
33  3.28571e+06 100 1300 100   0
34  -2.0979e+06  70 1360  70   0
35   2.0979e+06  70 1360  70   0
36      -952381  30 1440  30   0
37       952381  30 1440  30   0
38       134228  10 1480  10   0
39      -134228  10 1480  10   0
40  1.23288e+06  40 1420  40   0
41 -1.23288e+06  40 1420  40   0
42  2.37762e+06  70 1360  70   0
43 -2.37762e+06  70 1360  70   0
44  3.59712e+06 110 1280 110   0
45 -3.59712e+06 110 1280 110   0
46 -4.48529e+06 140 1220 140   0
47  4.48529e+06 140 1220 140   0
48 -3.21429e+06 100 1300 100   0
49  3.21429e+06 100 1300 100   0
50 -2.01389e+06  60 1380  60   0
51  2.01389e+06  60 1380  60   0
52      -884354  30 1440  30   0
53       884354  30 1440  30   0
54       201342  10 1480  10   0
55      -201342  10 1480  10   0
56  1.30137e+06  40 1420  40   0
57 -1.30137e+06  40 1420  40   0
58  2.46479e+06  80 1340  80   0
59 -2.46479e+06  80 1340  80   0
60  3.66906e+06 110 1280 110   0
61 -3.66906e+06 110 1280 110   0
62 -4.37956e+06 130 1240 130   0
63  4.37956e+06 130 1240 130   0
64 -3.14286e+06 100 1300 100   0
65  3.14286e+06 100 1300 100   0
66 -1.94444e+06  60 1380  60   0
67  1.94444e+06  60 1380  60   0
68      -816327  30 1440  30   0
69       816327  30 1440  30   0
70       268456  10 1480  10   0
71      -268456  10 1480  10   0
72  1.37931e+06  50 1400  50   0
73 -1.37931e+06  50 1400  50   0
74  2.53521e+06  80 1340  80   0
75 -2.53521e+06  80 1340  80   0
76  3.74101e+06 110 1280 110   0
77 -3.74101e+06 110 1280 110   0
78 -4.30657e+06 130 1240 130   0
79  4.30657e+06 130 1240 130   0
80 -3.04965e+06  90 1320  90   0
81  3.04965e+06  90 1320  90   0
82   -1.875e+06  60 1380  60   0
83    1.875e+06  60 1380  60   0
84      -748299  30 1440  30   0
85       748299  30 1440  30   0
86       335570  10 1480  10   0
87      -335570  10 1480  10   0
88  1.44828e+06  50 1400  50   0
89 -1.44828e+06  50 1400  50   0
90  2.60563e+06  80 1340  80   0
91 -2.60563e+06  80 1340  80   0
92  3.84058e+06 120 1260 120   0
93 -3.84058e+06 120 1260 120   0
94 -4.23358e+06 130 1240 130   0
95  4.23358e+06 130 1240 130   0
96 -2.97872e+06  90 1320  90   0
97  2.97872e+06  90 1320  90   0
98 -1.80556e+06  60 1380  60   0
99  1.80556e+06  60 1380  60   0
100      -675676  20 1460  20   0
101       675676  20 1460  20   0
102       405405  20 1460  20   0
103      -405405  20 1460  20   0
104  1.51724e+06  50 1400  50   0
105 -1.51724e+06  50 1400  50   0
106  2.67606e+06  80 1340  80   0
107 -2.67606e+06  80 1340  80   0
108  3.91304e+06 120 1260 120   0
109 -3.91304e+06 120 1260 120   0
110 -4.16058e+06 130 1240 130   0
111  4.16058e+06 130 1240 130   0
112  -2.9078e+06  90 1320  90   0
113   2.9078e+06  90 1320  90   0
114 -1.73611e+06  60 1380  60   0
115  1.73611e+06  60 1380  60   0
116      -608108  20 1460  20   0
117       608108  20 1460  20   0
118       472973  20 1460  20   0
119      -472973  20 1460  20   0
120  1.58621e+06  50 1400  50   0
121 -1.58621e+06  50 1400  50   0
122  2.76596e+06  90 1320  90   0
123 -2.76596e+06  90 1320  90   0
124  3.98551e+06 120 1260 120   0
125 -3.98551e+06 120 1260 120   0
126 -4.05797e+06 120 1260 120   0
127  4.05797e+06 120 1260 120   0
128 -2.83688e+06  90 1320  90   0
129  2.83688e+06  90 1320  90   0
130 -1.65517e+06  50 1400  50   0
131  1.65517e+06  50 1400  50   0
132      -540541  20 1460  20   0
133       540541  20 1460  20   0

# Format of ADC events:
# id num dwell delay freq phase
# ..  ..    ns    us   Hz   rad
[ADC]
1 800 3750 195 0 0

# Format of delays:
# id delay (us)
[DELAYS]
1 500
2 950
3 750
4 4930000

# Sequence Shapes
[SHAPES]

shape_id 1
num_samples 100
1
0
0
97

shape_id 2
num_samples 100
0
0
98

shape_id 3
num_samples 200
1
0
0
197

shape_id 4
num_samples 200
0
0
198

