# Pulseq sequence file
# Created by MATLAB mr toolbox

[VERSION]
major 1
minor 3
revision 1

[DEFINITIONS]
Bandwidth [Hz] 265974.026 
FOV 0.01 0.01 
Name se_2d 
Nx 200 
Ny 80 
SliceThickness 10 
TE [s] 0.012 
TR 5 
grad_t] 1.00016276e-05 
tx_t] 1.00097656e-06 

# Format of blocks:
#  #  D RF  GX  GY  GZ ADC EXT
[BLOCKS]
  1  0  1   0   0   0  0  0
  2  1  0   0   0   0  0  0
  3  0  0   1   2   0  0  0
  4  2  0   0   0   0  0  0
  5  0  0   3   0   0  0  0
  6  0  2   0   0   0  0  0
  7  0  0   3   0   0  0  0
  8  3  0   0   0   0  0  0
  9  0  0   4   0   0  1  0
 10  0  0   4   0   0  0  0
 11  4  0   0   0   0  0  0
 12  0  1   0   0   0  0  0
 13  1  0   0   0   0  0  0
 14  0  0   1   2   0  0  0
 15  2  0   0   0   0  0  0
 16  0  0   3   0   0  0  0
 17  0  2   0   0   0  0  0
 18  0  0   3   0   0  0  0
 19  3  0   0   0   0  0  0
 20  0  0   4   0   0  1  0
 21  0  0   4   0   0  0  0
 22  4  0   0   0   0  0  0
 23  0  1   0   0   0  0  0
 24  1  0   0   0   0  0  0
 25  0  0   1   2   0  0  0
 26  2  0   0   0   0  0  0
 27  0  0   3   0   0  0  0
 28  0  2   0   0   0  0  0
 29  0  0   3   0   0  0  0
 30  3  0   0   0   0  0  0
 31  0  0   4   0   0  1  0
 32  0  0   4   0   0  1  0
 33  4  0   0   0   0  0  0
 34  0  1   0   0   0  0  0
 35  1  0   0   0   0  0  0
 36  0  0   1   5   0  0  0
 37  2  0   0   0   0  0  0
 38  0  0   3   0   0  0  0
 39  0  2   0   0   0  0  0
 40  0  0   3   0   0  0  0
 41  3  0   0   0   0  0  0
 42  0  0   4   0   0  1  0
 43  0  0   4   0   0  1  0
 44  4  0   0   0   0  0  0
 45  0  1   0   0   0  0  0
 46  1  0   0   0   0  0  0
 47  0  0   1   6   0  0  0
 48  2  0   0   0   0  0  0
 49  0  0   3   0   0  0  0
 50  0  2   0   0   0  0  0
 51  0  0   3   0   0  0  0
 52  3  0   0   0   0  0  0
 53  0  0   4   0   0  1  0
 54  0  0   4   0   0  1  0
 55  4  0   0   0   0  0  0
 56  0  1   0   0   0  0  0
 57  1  0   0   0   0  0  0
 58  0  0   1   7   0  0  0
 59  2  0   0   0   0  0  0
 60  0  0   3   0   0  0  0
 61  0  2   0   0   0  0  0
 62  0  0   3   0   0  0  0
 63  3  0   0   0   0  0  0
 64  0  0   4   0   0  1  0
 65  0  0   4   0   0  1  0
 66  4  0   0   0   0  0  0
 67  0  1   0   0   0  0  0
 68  1  0   0   0   0  0  0
 69  0  0   1   8   0  0  0
 70  2  0   0   0   0  0  0
 71  0  0   3   0   0  0  0
 72  0  2   0   0   0  0  0
 73  0  0   3   0   0  0  0
 74  3  0   0   0   0  0  0
 75  0  0   4   0   0  1  0
 76  0  0   4   0   0  1  0
 77  4  0   0   0   0  0  0
 78  0  1   0   0   0  0  0
 79  1  0   0   0   0  0  0
 80  0  0   1   9   0  0  0
 81  2  0   0   0   0  0  0
 82  0  0   3   0   0  0  0
 83  0  2   0   0   0  0  0
 84  0  0   3   0   0  0  0
 85  3  0   0   0   0  0  0
 86  0  0   4   0   0  1  0
 87  0  0   4   0   0  1  0
 88  4  0   0   0   0  0  0
 89  0  1   0   0   0  0  0
 90  1  0   0   0   0  0  0
 91  0  0   1  10   0  0  0
 92  2  0   0   0   0  0  0
 93  0  0   3   0   0  0  0
 94  0  2   0   0   0  0  0
 95  0  0   3   0   0  0  0
 96  3  0   0   0   0  0  0
 97  0  0   4   0   0  1  0
 98  0  0   4   0   0  1  0
 99  4  0   0   0   0  0  0
100  0  1   0   0   0  0  0
101  1  0   0   0   0  0  0
102  0  0   1  11   0  0  0
103  2  0   0   0   0  0  0
104  0  0   3   0   0  0  0
105  0  2   0   0   0  0  0
106  0  0   3   0   0  0  0
107  3  0   0   0   0  0  0
108  0  0   4   0   0  1  0
109  0  0   4   0   0  1  0
110  4  0   0   0   0  0  0
111  0  1   0   0   0  0  0
112  1  0   0   0   0  0  0
113  0  0   1  12   0  0  0
114  2  0   0   0   0  0  0
115  0  0   3   0   0  0  0
116  0  2   0   0   0  0  0
117  0  0   3   0   0  0  0
118  3  0   0   0   0  0  0
119  0  0   4   0   0  1  0
120  0  0   4   0   0  1  0
121  4  0   0   0   0  0  0
122  0  1   0   0   0  0  0
123  1  0   0   0   0  0  0
124  0  0   1  13   0  0  0
125  2  0   0   0   0  0  0
126  0  0   3   0   0  0  0
127  0  2   0   0   0  0  0
128  0  0   3   0   0  0  0
129  3  0   0   0   0  0  0
130  0  0   4   0   0  1  0
131  0  0   4   0   0  1  0
132  4  0   0   0   0  0  0
133  0  1   0   0   0  0  0
134  1  0   0   0   0  0  0
135  0  0   1  14   0  0  0
136  2  0   0   0   0  0  0
137  0  0   3   0   0  0  0
138  0  2   0   0   0  0  0
139  0  0   3   0   0  0  0
140  3  0   0   0   0  0  0
141  0  0   4   0   0  1  0
142  0  0   4   0   0  1  0
143  4  0   0   0   0  0  0
144  0  1   0   0   0  0  0
145  1  0   0   0   0  0  0
146  0  0   1  15   0  0  0
147  2  0   0   0   0  0  0
148  0  0   3   0   0  0  0
149  0  2   0   0   0  0  0
150  0  0   3   0   0  0  0
151  3  0   0   0   0  0  0
152  0  0   4   0   0  1  0
153  0  0   4   0   0  1  0
154  4  0   0   0   0  0  0
155  0  1   0   0   0  0  0
156  1  0   0   0   0  0  0
157  0  0   1  16   0  0  0
158  2  0   0   0   0  0  0
159  0  0   3   0   0  0  0
160  0  2   0   0   0  0  0
161  0  0   3   0   0  0  0
162  3  0   0   0   0  0  0
163  0  0   4   0   0  1  0
164  0  0   4   0   0  1  0
165  4  0   0   0   0  0  0
166  0  1   0   0   0  0  0
167  1  0   0   0   0  0  0
168  0  0   1  17   0  0  0
169  2  0   0   0   0  0  0
170  0  0   3   0   0  0  0
171  0  2   0   0   0  0  0
172  0  0   3   0   0  0  0
173  3  0   0   0   0  0  0
174  0  0   4   0   0  1  0
175  0  0   4   0   0  1  0
176  4  0   0   0   0  0  0
177  0  1   0   0   0  0  0
178  1  0   0   0   0  0  0
179  0  0   1  18   0  0  0
180  2  0   0   0   0  0  0
181  0  0   3   0   0  0  0
182  0  2   0   0   0  0  0
183  0  0   3   0   0  0  0
184  3  0   0   0   0  0  0
185  0  0   4   0   0  1  0
186  0  0   4   0   0  1  0
187  4  0   0   0   0  0  0
188  0  1   0   0   0  0  0
189  1  0   0   0   0  0  0
190  0  0   1  19   0  0  0
191  2  0   0   0   0  0  0
192  0  0   3   0   0  0  0
193  0  2   0   0   0  0  0
194  0  0   3   0   0  0  0
195  3  0   0   0   0  0  0
196  0  0   4   0   0  1  0
197  0  0   4   0   0  1  0
198  4  0   0   0   0  0  0
199  0  1   0   0   0  0  0
200  1  0   0   0   0  0  0
201  0  0   1  20   0  0  0
202  2  0   0   0   0  0  0
203  0  0   3   0   0  0  0
204  0  2   0   0   0  0  0
205  0  0   3   0   0  0  0
206  3  0   0   0   0  0  0
207  0  0   4   0   0  1  0
208  0  0   4   0   0  1  0
209  4  0   0   0   0  0  0
210  0  1   0   0   0  0  0
211  1  0   0   0   0  0  0
212  0  0   1  21   0  0  0
213  2  0   0   0   0  0  0
214  0  0   3   0   0  0  0
215  0  2   0   0   0  0  0
216  0  0   3   0   0  0  0
217  3  0   0   0   0  0  0
218  0  0   4   0   0  1  0
219  0  0   4   0   0  1  0
220  4  0   0   0   0  0  0
221  0  1   0   0   0  0  0
222  1  0   0   0   0  0  0
223  0  0   1  22   0  0  0
224  2  0   0   0   0  0  0
225  0  0   3   0   0  0  0
226  0  2   0   0   0  0  0
227  0  0   3   0   0  0  0
228  3  0   0   0   0  0  0
229  0  0   4   0   0  1  0
230  0  0   4   0   0  1  0
231  4  0   0   0   0  0  0
232  0  1   0   0   0  0  0
233  1  0   0   0   0  0  0
234  0  0   1  23   0  0  0
235  2  0   0   0   0  0  0
236  0  0   3   0   0  0  0
237  0  2   0   0   0  0  0
238  0  0   3   0   0  0  0
239  3  0   0   0   0  0  0
240  0  0   4   0   0  1  0
241  0  0   4   0   0  1  0
242  4  0   0   0   0  0  0
243  0  1   0   0   0  0  0
244  1  0   0   0   0  0  0
245  0  0   1  24   0  0  0
246  2  0   0   0   0  0  0
247  0  0   3   0   0  0  0
248  0  2   0   0   0  0  0
249  0  0   3   0   0  0  0
250  3  0   0   0   0  0  0
251  0  0   4   0   0  1  0
252  0  0   4   0   0  1  0
253  4  0   0   0   0  0  0
254  0  1   0   0   0  0  0
255  1  0   0   0   0  0  0
256  0  0   1  25   0  0  0
257  2  0   0   0   0  0  0
258  0  0   3   0   0  0  0
259  0  2   0   0   0  0  0
260  0  0   3   0   0  0  0
261  3  0   0   0   0  0  0
262  0  0   4   0   0  1  0
263  0  0   4   0   0  1  0
264  4  0   0   0   0  0  0
265  0  1   0   0   0  0  0
266  1  0   0   0   0  0  0
267  0  0   1  26   0  0  0
268  2  0   0   0   0  0  0
269  0  0   3   0   0  0  0
270  0  2   0   0   0  0  0
271  0  0   3   0   0  0  0
272  3  0   0   0   0  0  0
273  0  0   4   0   0  1  0
274  0  0   4   0   0  1  0
275  4  0   0   0   0  0  0
276  0  1   0   0   0  0  0
277  1  0   0   0   0  0  0
278  0  0   1  27   0  0  0
279  2  0   0   0   0  0  0
280  0  0   3   0   0  0  0
281  0  2   0   0   0  0  0
282  0  0   3   0   0  0  0
283  3  0   0   0   0  0  0
284  0  0   4   0   0  1  0
285  0  0   4   0   0  1  0
286  4  0   0   0   0  0  0
287  0  1   0   0   0  0  0
288  1  0   0   0   0  0  0
289  0  0   1  28   0  0  0
290  2  0   0   0   0  0  0
291  0  0   3   0   0  0  0
292  0  2   0   0   0  0  0
293  0  0   3   0   0  0  0
294  3  0   0   0   0  0  0
295  0  0   4   0   0  1  0
296  0  0   4   0   0  1  0
297  4  0   0   0   0  0  0
298  0  1   0   0   0  0  0
299  1  0   0   0   0  0  0
300  0  0   1  29   0  0  0
301  2  0   0   0   0  0  0
302  0  0   3   0   0  0  0
303  0  2   0   0   0  0  0
304  0  0   3   0   0  0  0
305  3  0   0   0   0  0  0
306  0  0   4   0   0  1  0
307  0  0   4   0   0  1  0
308  4  0   0   0   0  0  0
309  0  1   0   0   0  0  0
310  1  0   0   0   0  0  0
311  0  0   1  30   0  0  0
312  2  0   0   0   0  0  0
313  0  0   3   0   0  0  0
314  0  2   0   0   0  0  0
315  0  0   3   0   0  0  0
316  3  0   0   0   0  0  0
317  0  0   4   0   0  1  0
318  0  0   4   0   0  1  0
319  4  0   0   0   0  0  0
320  0  1   0   0   0  0  0
321  1  0   0   0   0  0  0
322  0  0   1  31   0  0  0
323  2  0   0   0   0  0  0
324  0  0   3   0   0  0  0
325  0  2   0   0   0  0  0
326  0  0   3   0   0  0  0
327  3  0   0   0   0  0  0
328  0  0   4   0   0  1  0
329  0  0   4   0   0  1  0
330  4  0   0   0   0  0  0
331  0  1   0   0   0  0  0
332  1  0   0   0   0  0  0
333  0  0   1  32   0  0  0
334  2  0   0   0   0  0  0
335  0  0   3   0   0  0  0
336  0  2   0   0   0  0  0
337  0  0   3   0   0  0  0
338  3  0   0   0   0  0  0
339  0  0   4   0   0  1  0
340  0  0   4   0   0  1  0
341  4  0   0   0   0  0  0
342  0  1   0   0   0  0  0
343  1  0   0   0   0  0  0
344  0  0   1  33   0  0  0
345  2  0   0   0   0  0  0
346  0  0   3   0   0  0  0
347  0  2   0   0   0  0  0
348  0  0   3   0   0  0  0
349  3  0   0   0   0  0  0
350  0  0   4   0   0  1  0
351  0  0   4   0   0  1  0
352  4  0   0   0   0  0  0
353  0  1   0   0   0  0  0
354  1  0   0   0   0  0  0
355  0  0   1  34   0  0  0
356  2  0   0   0   0  0  0
357  0  0   3   0   0  0  0
358  0  2   0   0   0  0  0
359  0  0   3   0   0  0  0
360  3  0   0   0   0  0  0
361  0  0   4   0   0  1  0
362  0  0   4   0   0  1  0
363  4  0   0   0   0  0  0
364  0  1   0   0   0  0  0
365  1  0   0   0   0  0  0
366  0  0   1  35   0  0  0
367  2  0   0   0   0  0  0
368  0  0   3   0   0  0  0
369  0  2   0   0   0  0  0
370  0  0   3   0   0  0  0
371  3  0   0   0   0  0  0
372  0  0   4   0   0  1  0
373  0  0   4   0   0  1  0
374  4  0   0   0   0  0  0
375  0  1   0   0   0  0  0
376  1  0   0   0   0  0  0
377  0  0   1  36   0  0  0
378  2  0   0   0   0  0  0
379  0  0   3   0   0  0  0
380  0  2   0   0   0  0  0
381  0  0   3   0   0  0  0
382  3  0   0   0   0  0  0
383  0  0   4   0   0  1  0
384  0  0   4   0   0  1  0
385  4  0   0   0   0  0  0
386  0  1   0   0   0  0  0
387  1  0   0   0   0  0  0
388  0  0   1  37   0  0  0
389  2  0   0   0   0  0  0
390  0  0   3   0   0  0  0
391  0  2   0   0   0  0  0
392  0  0   3   0   0  0  0
393  3  0   0   0   0  0  0
394  0  0   4   0   0  1  0
395  0  0   4   0   0  1  0
396  4  0   0   0   0  0  0
397  0  1   0   0   0  0  0
398  1  0   0   0   0  0  0
399  0  0   1  38   0  0  0
400  2  0   0   0   0  0  0
401  0  0   3   0   0  0  0
402  0  2   0   0   0  0  0
403  0  0   3   0   0  0  0
404  3  0   0   0   0  0  0
405  0  0   4   0   0  1  0
406  0  0   4   0   0  1  0
407  4  0   0   0   0  0  0
408  0  1   0   0   0  0  0
409  1  0   0   0   0  0  0
410  0  0   1  39   0  0  0
411  2  0   0   0   0  0  0
412  0  0   3   0   0  0  0
413  0  2   0   0   0  0  0
414  0  0   3   0   0  0  0
415  3  0   0   0   0  0  0
416  0  0   4   0   0  1  0
417  0  0   4   0   0  1  0
418  4  0   0   0   0  0  0
419  0  1   0   0   0  0  0
420  1  0   0   0   0  0  0
421  0  0   1  40   0  0  0
422  2  0   0   0   0  0  0
423  0  0   3   0   0  0  0
424  0  2   0   0   0  0  0
425  0  0   3   0   0  0  0
426  3  0   0   0   0  0  0
427  0  0   4   0   0  1  0
428  0  0   4   0   0  1  0
429  4  0   0   0   0  0  0
430  0  1   0   0   0  0  0
431  1  0   0   0   0  0  0
432  0  0   1  41   0  0  0
433  2  0   0   0   0  0  0
434  0  0   3   0   0  0  0
435  0  2   0   0   0  0  0
436  0  0   3   0   0  0  0
437  3  0   0   0   0  0  0
438  0  0   4   0   0  1  0
439  0  0   4   0   0  1  0
440  4  0   0   0   0  0  0
441  0  1   0   0   0  0  0
442  1  0   0   0   0  0  0
443  0  0   1  42   0  0  0
444  2  0   0   0   0  0  0
445  0  0   3   0   0  0  0
446  0  2   0   0   0  0  0
447  0  0   3   0   0  0  0
448  3  0   0   0   0  0  0
449  0  0   4   0   0  1  0
450  0  0   4   0   0  1  0
451  4  0   0   0   0  0  0
452  0  1   0   0   0  0  0
453  1  0   0   0   0  0  0
454  0  0   1  43   0  0  0
455  2  0   0   0   0  0  0
456  0  0   3   0   0  0  0
457  0  2   0   0   0  0  0
458  0  0   3   0   0  0  0
459  3  0   0   0   0  0  0
460  0  0   4   0   0  1  0
461  0  0   4   0   0  1  0
462  4  0   0   0   0  0  0
463  0  1   0   0   0  0  0
464  1  0   0   0   0  0  0
465  0  0   1  44   0  0  0
466  2  0   0   0   0  0  0
467  0  0   3   0   0  0  0
468  0  2   0   0   0  0  0
469  0  0   3   0   0  0  0
470  3  0   0   0   0  0  0
471  0  0   4   0   0  1  0
472  0  0   4   0   0  1  0
473  4  0   0   0   0  0  0
474  0  1   0   0   0  0  0
475  1  0   0   0   0  0  0
476  0  0   1  45   0  0  0
477  2  0   0   0   0  0  0
478  0  0   3   0   0  0  0
479  0  2   0   0   0  0  0
480  0  0   3   0   0  0  0
481  3  0   0   0   0  0  0
482  0  0   4   0   0  1  0
483  0  0   4   0   0  1  0
484  4  0   0   0   0  0  0
485  0  1   0   0   0  0  0
486  1  0   0   0   0  0  0
487  0  0   1  46   0  0  0
488  2  0   0   0   0  0  0
489  0  0   3   0   0  0  0
490  0  2   0   0   0  0  0
491  0  0   3   0   0  0  0
492  3  0   0   0   0  0  0
493  0  0   4   0   0  1  0
494  0  0   4   0   0  1  0
495  4  0   0   0   0  0  0
496  0  1   0   0   0  0  0
497  1  0   0   0   0  0  0
498  0  0   1  47   0  0  0
499  2  0   0   0   0  0  0
500  0  0   3   0   0  0  0
501  0  2   0   0   0  0  0
502  0  0   3   0   0  0  0
503  3  0   0   0   0  0  0
504  0  0   4   0   0  1  0
505  0  0   4   0   0  1  0
506  4  0   0   0   0  0  0
507  0  1   0   0   0  0  0
508  1  0   0   0   0  0  0
509  0  0   1  48   0  0  0
510  2  0   0   0   0  0  0
511  0  0   3   0   0  0  0
512  0  2   0   0   0  0  0
513  0  0   3   0   0  0  0
514  3  0   0   0   0  0  0
515  0  0   4   0   0  1  0
516  0  0   4   0   0  1  0
517  4  0   0   0   0  0  0
518  0  1   0   0   0  0  0
519  1  0   0   0   0  0  0
520  0  0   1  49   0  0  0
521  2  0   0   0   0  0  0
522  0  0   3   0   0  0  0
523  0  2   0   0   0  0  0
524  0  0   3   0   0  0  0
525  3  0   0   0   0  0  0
526  0  0   4   0   0  1  0
527  0  0   4   0   0  1  0
528  4  0   0   0   0  0  0
529  0  1   0   0   0  0  0
530  1  0   0   0   0  0  0
531  0  0   1  50   0  0  0
532  2  0   0   0   0  0  0
533  0  0   3   0   0  0  0
534  0  2   0   0   0  0  0
535  0  0   3   0   0  0  0
536  3  0   0   0   0  0  0
537  0  0   4   0   0  1  0
538  0  0   4   0   0  1  0
539  4  0   0   0   0  0  0
540  0  1   0   0   0  0  0
541  1  0   0   0   0  0  0
542  0  0   1  51   0  0  0
543  2  0   0   0   0  0  0
544  0  0   3   0   0  0  0
545  0  2   0   0   0  0  0
546  0  0   3   0   0  0  0
547  3  0   0   0   0  0  0
548  0  0   4   0   0  1  0
549  0  0   4   0   0  1  0
550  4  0   0   0   0  0  0
551  0  1   0   0   0  0  0
552  1  0   0   0   0  0  0
553  0  0   1  52   0  0  0
554  2  0   0   0   0  0  0
555  0  0   3   0   0  0  0
556  0  2   0   0   0  0  0
557  0  0   3   0   0  0  0
558  3  0   0   0   0  0  0
559  0  0   4   0   0  1  0
560  0  0   4   0   0  1  0
561  4  0   0   0   0  0  0
562  0  1   0   0   0  0  0
563  1  0   0   0   0  0  0
564  0  0   1  53   0  0  0
565  2  0   0   0   0  0  0
566  0  0   3   0   0  0  0
567  0  2   0   0   0  0  0
568  0  0   3   0   0  0  0
569  3  0   0   0   0  0  0
570  0  0   4   0   0  1  0
571  0  0   4   0   0  1  0
572  4  0   0   0   0  0  0
573  0  1   0   0   0  0  0
574  1  0   0   0   0  0  0
575  0  0   1  54   0  0  0
576  2  0   0   0   0  0  0
577  0  0   3   0   0  0  0
578  0  2   0   0   0  0  0
579  0  0   3   0   0  0  0
580  3  0   0   0   0  0  0
581  0  0   4   0   0  1  0
582  0  0   4   0   0  1  0
583  4  0   0   0   0  0  0
584  0  1   0   0   0  0  0
585  1  0   0   0   0  0  0
586  0  0   1  55   0  0  0
587  2  0   0   0   0  0  0
588  0  0   3   0   0  0  0
589  0  2   0   0   0  0  0
590  0  0   3   0   0  0  0
591  3  0   0   0   0  0  0
592  0  0   4   0   0  1  0
593  0  0   4   0   0  1  0
594  4  0   0   0   0  0  0
595  0  1   0   0   0  0  0
596  1  0   0   0   0  0  0
597  0  0   1  56   0  0  0
598  2  0   0   0   0  0  0
599  0  0   3   0   0  0  0
600  0  2   0   0   0  0  0
601  0  0   3   0   0  0  0
602  3  0   0   0   0  0  0
603  0  0   4   0   0  1  0
604  0  0   4   0   0  1  0
605  4  0   0   0   0  0  0
606  0  1   0   0   0  0  0
607  1  0   0   0   0  0  0
608  0  0   1  57   0  0  0
609  2  0   0   0   0  0  0
610  0  0   3   0   0  0  0
611  0  2   0   0   0  0  0
612  0  0   3   0   0  0  0
613  3  0   0   0   0  0  0
614  0  0   4   0   0  1  0
615  0  0   4   0   0  1  0
616  4  0   0   0   0  0  0
617  0  1   0   0   0  0  0
618  1  0   0   0   0  0  0
619  0  0   1  58   0  0  0
620  2  0   0   0   0  0  0
621  0  0   3   0   0  0  0
622  0  2   0   0   0  0  0
623  0  0   3   0   0  0  0
624  3  0   0   0   0  0  0
625  0  0   4   0   0  1  0
626  0  0   4   0   0  1  0
627  4  0   0   0   0  0  0
628  0  1   0   0   0  0  0
629  1  0   0   0   0  0  0
630  0  0   1  59   0  0  0
631  2  0   0   0   0  0  0
632  0  0   3   0   0  0  0
633  0  2   0   0   0  0  0
634  0  0   3   0   0  0  0
635  3  0   0   0   0  0  0
636  0  0   4   0   0  1  0
637  0  0   4   0   0  1  0
638  4  0   0   0   0  0  0
639  0  1   0   0   0  0  0
640  1  0   0   0   0  0  0
641  0  0   1  60   0  0  0
642  2  0   0   0   0  0  0
643  0  0   3   0   0  0  0
644  0  2   0   0   0  0  0
645  0  0   3   0   0  0  0
646  3  0   0   0   0  0  0
647  0  0   4   0   0  1  0
648  0  0   4   0   0  1  0
649  4  0   0   0   0  0  0
650  0  1   0   0   0  0  0
651  1  0   0   0   0  0  0
652  0  0   1  61   0  0  0
653  2  0   0   0   0  0  0
654  0  0   3   0   0  0  0
655  0  2   0   0   0  0  0
656  0  0   3   0   0  0  0
657  3  0   0   0   0  0  0
658  0  0   4   0   0  1  0
659  0  0   4   0   0  1  0
660  4  0   0   0   0  0  0
661  0  1   0   0   0  0  0
662  1  0   0   0   0  0  0
663  0  0   1  62   0  0  0
664  2  0   0   0   0  0  0
665  0  0   3   0   0  0  0
666  0  2   0   0   0  0  0
667  0  0   3   0   0  0  0
668  3  0   0   0   0  0  0
669  0  0   4   0   0  1  0
670  0  0   4   0   0  1  0
671  4  0   0   0   0  0  0
672  0  1   0   0   0  0  0
673  1  0   0   0   0  0  0
674  0  0   1  63   0  0  0
675  2  0   0   0   0  0  0
676  0  0   3   0   0  0  0
677  0  2   0   0   0  0  0
678  0  0   3   0   0  0  0
679  3  0   0   0   0  0  0
680  0  0   4   0   0  1  0
681  0  0   4   0   0  1  0
682  4  0   0   0   0  0  0
683  0  1   0   0   0  0  0
684  1  0   0   0   0  0  0
685  0  0   1  64   0  0  0
686  2  0   0   0   0  0  0
687  0  0   3   0   0  0  0
688  0  2   0   0   0  0  0
689  0  0   3   0   0  0  0
690  3  0   0   0   0  0  0
691  0  0   4   0   0  1  0
692  0  0   4   0   0  1  0
693  4  0   0   0   0  0  0
694  0  1   0   0   0  0  0
695  1  0   0   0   0  0  0
696  0  0   1  65   0  0  0
697  2  0   0   0   0  0  0
698  0  0   3   0   0  0  0
699  0  2   0   0   0  0  0
700  0  0   3   0   0  0  0
701  3  0   0   0   0  0  0
702  0  0   4   0   0  1  0
703  0  0   4   0   0  1  0
704  4  0   0   0   0  0  0
705  0  1   0   0   0  0  0
706  1  0   0   0   0  0  0
707  0  0   1  66   0  0  0
708  2  0   0   0   0  0  0
709  0  0   3   0   0  0  0
710  0  2   0   0   0  0  0
711  0  0   3   0   0  0  0
712  3  0   0   0   0  0  0
713  0  0   4   0   0  1  0
714  0  0   4   0   0  1  0
715  4  0   0   0   0  0  0
716  0  1   0   0   0  0  0
717  1  0   0   0   0  0  0
718  0  0   1  67   0  0  0
719  2  0   0   0   0  0  0
720  0  0   3   0   0  0  0
721  0  2   0   0   0  0  0
722  0  0   3   0   0  0  0
723  3  0   0   0   0  0  0
724  0  0   4   0   0  1  0
725  0  0   4   0   0  1  0
726  4  0   0   0   0  0  0
727  0  1   0   0   0  0  0
728  1  0   0   0   0  0  0
729  0  0   1  68   0  0  0
730  2  0   0   0   0  0  0
731  0  0   3   0   0  0  0
732  0  2   0   0   0  0  0
733  0  0   3   0   0  0  0
734  3  0   0   0   0  0  0
735  0  0   4   0   0  1  0
736  0  0   4   0   0  1  0
737  4  0   0   0   0  0  0
738  0  1   0   0   0  0  0
739  1  0   0   0   0  0  0
740  0  0   1  69   0  0  0
741  2  0   0   0   0  0  0
742  0  0   3   0   0  0  0
743  0  2   0   0   0  0  0
744  0  0   3   0   0  0  0
745  3  0   0   0   0  0  0
746  0  0   4   0   0  1  0
747  0  0   4   0   0  1  0
748  4  0   0   0   0  0  0
749  0  1   0   0   0  0  0
750  1  0   0   0   0  0  0
751  0  0   1  70   0  0  0
752  2  0   0   0   0  0  0
753  0  0   3   0   0  0  0
754  0  2   0   0   0  0  0
755  0  0   3   0   0  0  0
756  3  0   0   0   0  0  0
757  0  0   4   0   0  1  0
758  0  0   4   0   0  1  0
759  4  0   0   0   0  0  0
760  0  1   0   0   0  0  0
761  1  0   0   0   0  0  0
762  0  0   1  71   0  0  0
763  2  0   0   0   0  0  0
764  0  0   3   0   0  0  0
765  0  2   0   0   0  0  0
766  0  0   3   0   0  0  0
767  3  0   0   0   0  0  0
768  0  0   4   0   0  1  0
769  0  0   4   0   0  1  0
770  4  0   0   0   0  0  0
771  0  1   0   0   0  0  0
772  1  0   0   0   0  0  0
773  0  0   1  72   0  0  0
774  2  0   0   0   0  0  0
775  0  0   3   0   0  0  0
776  0  2   0   0   0  0  0
777  0  0   3   0   0  0  0
778  3  0   0   0   0  0  0
779  0  0   4   0   0  1  0
780  0  0   4   0   0  1  0
781  4  0   0   0   0  0  0
782  0  1   0   0   0  0  0
783  1  0   0   0   0  0  0
784  0  0   1  73   0  0  0
785  2  0   0   0   0  0  0
786  0  0   3   0   0  0  0
787  0  2   0   0   0  0  0
788  0  0   3   0   0  0  0
789  3  0   0   0   0  0  0
790  0  0   4   0   0  1  0
791  0  0   4   0   0  1  0
792  4  0   0   0   0  0  0
793  0  1   0   0   0  0  0
794  1  0   0   0   0  0  0
795  0  0   1  74   0  0  0
796  2  0   0   0   0  0  0
797  0  0   3   0   0  0  0
798  0  2   0   0   0  0  0
799  0  0   3   0   0  0  0
800  3  0   0   0   0  0  0
801  0  0   4   0   0  1  0
802  0  0   4   0   0  1  0
803  4  0   0   0   0  0  0
804  0  1   0   0   0  0  0
805  1  0   0   0   0  0  0
806  0  0   1  75   0  0  0
807  2  0   0   0   0  0  0
808  0  0   3   0   0  0  0
809  0  2   0   0   0  0  0
810  0  0   3   0   0  0  0
811  3  0   0   0   0  0  0
812  0  0   4   0   0  1  0
813  0  0   4   0   0  1  0
814  4  0   0   0   0  0  0
815  0  1   0   0   0  0  0
816  1  0   0   0   0  0  0
817  0  0   1  76   0  0  0
818  2  0   0   0   0  0  0
819  0  0   3   0   0  0  0
820  0  2   0   0   0  0  0
821  0  0   3   0   0  0  0
822  3  0   0   0   0  0  0
823  0  0   4   0   0  1  0
824  0  0   4   0   0  1  0
825  4  0   0   0   0  0  0
826  0  1   0   0   0  0  0
827  1  0   0   0   0  0  0
828  0  0   1  77   0  0  0
829  2  0   0   0   0  0  0
830  0  0   3   0   0  0  0
831  0  2   0   0   0  0  0
832  0  0   3   0   0  0  0
833  3  0   0   0   0  0  0
834  0  0   4   0   0  1  0
835  0  0   4   0   0  1  0
836  4  0   0   0   0  0  0
837  0  1   0   0   0  0  0
838  1  0   0   0   0  0  0
839  0  0   1  78   0  0  0
840  2  0   0   0   0  0  0
841  0  0   3   0   0  0  0
842  0  2   0   0   0  0  0
843  0  0   3   0   0  0  0
844  3  0   0   0   0  0  0
845  0  0   4   0   0  1  0
846  0  0   4   0   0  1  0
847  4  0   0   0   0  0  0
848  0  1   0   0   0  0  0
849  1  0   0   0   0  0  0
850  0  0   1  79   0  0  0
851  2  0   0   0   0  0  0
852  0  0   3   0   0  0  0
853  0  2   0   0   0  0  0
854  0  0   3   0   0  0  0
855  3  0   0   0   0  0  0
856  0  0   4   0   0  1  0
857  0  0   4   0   0  1  0
858  4  0   0   0   0  0  0
859  0  1   0   0   0  0  0
860  1  0   0   0   0  0  0
861  0  0   1  80   0  0  0
862  2  0   0   0   0  0  0
863  0  0   3   0   0  0  0
864  0  2   0   0   0  0  0
865  0  0   3   0   0  0  0
866  3  0   0   0   0  0  0
867  0  0   4   0   0  1  0
868  0  0   4   0   0  1  0
869  4  0   0   0   0  0  0
870  0  1   0   0   0  0  0
871  1  0   0   0   0  0  0
872  0  0   1  81   0  0  0
873  2  0   0   0   0  0  0
874  0  0   3   0   0  0  0
875  0  2   0   0   0  0  0
876  0  0   3   0   0  0  0
877  3  0   0   0   0  0  0
878  0  0   4   0   0  1  0
879  0  0   4   0   0  1  0
880  4  0   0   0   0  0  0
881  0  1   0   0   0  0  0
882  1  0   0   0   0  0  0
883  0  0   1  82   0  0  0
884  2  0   0   0   0  0  0
885  0  0   3   0   0  0  0
886  0  2   0   0   0  0  0
887  0  0   3   0   0  0  0
888  3  0   0   0   0  0  0
889  0  0   4   0   0  1  0
890  0  0   4   0   0  1  0
891  4  0   0   0   0  0  0
892  0  1   0   0   0  0  0
893  1  0   0   0   0  0  0
894  0  0   1  83   0  0  0
895  2  0   0   0   0  0  0
896  0  0   3   0   0  0  0
897  0  2   0   0   0  0  0
898  0  0   3   0   0  0  0
899  3  0   0   0   0  0  0
900  0  0   4   0   0  1  0
901  0  0   4   0   0  1  0
902  4  0   0   0   0  0  0

# Format of RF events:
# id amplitude mag_id phase_id delay freq phase
# ..        Hz   ....     ....    us   Hz   rad
[RF]
1         1250 1 2 500 0 0
2         2500 1 2 500 0 1.5708

# Format of trapezoid gradients:
# id amplitude rise flat fall delay
# ..      Hz/m   us   us   us    us
[TRAP]
 1  8.50573e+06 250 1004 250   0
 2 -2.82907e+06  90 1324  90   0
 3  6.45226e+06 190  120 190   0
 4  6.64935e+06 200 3008 200   0
 5 -2.75745e+06  90 1324  90   0
 6 -2.66696e+06  80 1344  80   0
 7 -2.59584e+06  80 1344  80   0
 8 -2.52472e+06  80 1344  80   0
 9  -2.4536e+06  80 1344  80   0
10 -2.36587e+06  70 1364  70   0
11 -2.29524e+06  70 1364  70   0
12 -2.22462e+06  70 1364  70   0
13   -2.154e+06  70 1364  70   0
14 -2.08338e+06  70 1364  70   0
15 -1.99881e+06  60 1384  60   0
16 -1.92868e+06  60 1384  60   0
17 -1.85854e+06  60 1384  60   0
18 -1.78841e+06  60 1384  60   0
19 -1.71828e+06  60 1384  60   0
20  -1.6368e+06  50 1404  50   0
21 -1.56715e+06  50 1404  50   0
22  -1.4975e+06  50 1404  50   0
23 -1.42785e+06  50 1404  50   0
24 -1.34892e+06  40 1424  40   0
25 -1.27974e+06  40 1424  40   0
26 -1.21057e+06  40 1424  40   0
27 -1.14139e+06  40 1424  40   0
28 -1.07222e+06  40 1424  40   0
29      -996237  30 1444  30   0
30      -927531  30 1444  30   0
31      -858825  30 1444  30   0
32      -790119  30 1444  30   0
33      -721413  30 1444  30   0
34      -648307  20 1464  20   0
35      -580065  20 1464  20   0
36      -511822  20 1464  20   0
37      -443579  20 1464  20   0
38      -375336  20 1464  20   0
39      -305037  10 1484  10   0
40      -237251  10 1484  10   0
41      -169465  10 1484  10   0
42      -101679  10 1484  10   0
43       -33893  10 1484  10   0
44        33893  10 1484  10   0
45       101679  10 1484  10   0
46       169465  10 1484  10   0
47       237251  10 1484  10   0
48       305037  10 1484  10   0
49       375336  20 1464  20   0
50       443579  20 1464  20   0
51       511822  20 1464  20   0
52       580065  20 1464  20   0
53       648307  20 1464  20   0
54       721413  30 1444  30   0
55       790119  30 1444  30   0
56       858825  30 1444  30   0
57       927531  30 1444  30   0
58       996237  30 1444  30   0
59  1.07222e+06  40 1424  40   0
60  1.14139e+06  40 1424  40   0
61  1.21057e+06  40 1424  40   0
62  1.27974e+06  40 1424  40   0
63  1.34892e+06  40 1424  40   0
64  1.42785e+06  50 1404  50   0
65   1.4975e+06  50 1404  50   0
66  1.56715e+06  50 1404  50   0
67   1.6368e+06  50 1404  50   0
68  1.71828e+06  60 1384  60   0
69  1.78841e+06  60 1384  60   0
70  1.85854e+06  60 1384  60   0
71  1.92868e+06  60 1384  60   0
72  1.99881e+06  60 1384  60   0
73  2.08338e+06  70 1364  70   0
74    2.154e+06  70 1364  70   0
75  2.22462e+06  70 1364  70   0
76  2.29524e+06  70 1364  70   0
77  2.36587e+06  70 1364  70   0
78   2.4536e+06  80 1344  80   0
79  2.52472e+06  80 1344  80   0
80  2.59584e+06  80 1344  80   0
81  2.66696e+06  80 1344  80   0
82  2.75745e+06  90 1324  90   0
83  2.82907e+06  90 1324  90   0

# Format of ADC events:
# id num dwell delay freq phase
# ..  ..    ns    us   Hz   rad
[ADC]
1 800 3760 200 0 0

# Format of delays:
# id delay (us)
[DELAYS]
1 2296
2 1000
3 3696
4 4985696

# Sequence Shapes
[SHAPES]

shape_id 1
num_samples 200
1
0
0
197

shape_id 2
num_samples 200
0
0
198

