# Pulseq sequence file
# Created by MATLAB mr toolbox

[VERSION]
major 1
minor 3
revision 1

[DEFINITIONS]
Bandwidth [Hz] 266666.667 
ESP [s] 0.01 
ETL 8 
FOV 0.01 0.01 
Name tse_2d 
Nx 200 
Ny 128 
SliceThickness 10 
TR 5 
grad_t 10 
tx_t 1 

# Format of blocks:
#  #  D RF  GX  GY  GZ ADC EXT
[BLOCKS]
   1  0  1   0   0   0  0  0
   2  1  0   0   0   0  0  0
   3  0  0   1   0   0  0  0
   4  0  0   2   0   0  0  0
   5  0  2   0   0   0  0  0
   6  0  0   2   0   0  0  0
   7  2  0   0   0   0  0  0
   8  0  0   0   3   0  0  0
   9  0  0   4   0   0  1  0
  10  0  0   0   5   0  0  0
  11  3  0   0   0   0  0  0
  12  0  0   2   0   0  0  0
  13  0  2   0   0   0  0  0
  14  0  0   2   0   0  0  0
  15  2  0   0   0   0  0  0
  16  0  0   0   6   0  0  0
  17  0  0   4   0   0  1  0
  18  0  0   0   7   0  0  0
  19  3  0   0   0   0  0  0
  20  0  0   2   0   0  0  0
  21  0  2   0   0   0  0  0
  22  0  0   2   0   0  0  0
  23  2  0   0   0   0  0  0
  24  0  0   0   8   0  0  0
  25  0  0   4   0   0  1  0
  26  0  0   0   9   0  0  0
  27  3  0   0   0   0  0  0
  28  0  0   2   0   0  0  0
  29  0  2   0   0   0  0  0
  30  0  0   2   0   0  0  0
  31  2  0   0   0   0  0  0
  32  0  0   0  10   0  0  0
  33  0  0   4   0   0  1  0
  34  0  0   0  11   0  0  0
  35  3  0   0   0   0  0  0
  36  0  0   2   0   0  0  0
  37  0  2   0   0   0  0  0
  38  0  0   2   0   0  0  0
  39  2  0   0   0   0  0  0
  40  0  0   0  12   0  0  0
  41  0  0   4   0   0  1  0
  42  0  0   0  13   0  0  0
  43  3  0   0   0   0  0  0
  44  0  0   2   0   0  0  0
  45  0  2   0   0   0  0  0
  46  0  0   2   0   0  0  0
  47  2  0   0   0   0  0  0
  48  0  0   0  11   0  0  0
  49  0  0   4   0   0  1  0
  50  0  0   0  10   0  0  0
  51  3  0   0   0   0  0  0
  52  0  0   2   0   0  0  0
  53  0  2   0   0   0  0  0
  54  0  0   2   0   0  0  0
  55  2  0   0   0   0  0  0
  56  0  0   0   9   0  0  0
  57  0  0   4   0   0  1  0
  58  0  0   0   8   0  0  0
  59  3  0   0   0   0  0  0
  60  0  0   2   0   0  0  0
  61  0  2   0   0   0  0  0
  62  0  0   2   0   0  0  0
  63  2  0   0   0   0  0  0
  64  0  0   0   7   0  0  0
  65  0  0   4   0   0  1  0
  66  0  0   0   6   0  0  0
  67  4  0   0   0   0  0  0
  68  0  1   0   0   0  0  0
  69  1  0   0   0   0  0  0
  70  0  0   1   0   0  0  0
  71  0  0   2   0   0  0  0
  72  0  2   0   0   0  0  0
  73  0  0   2   0   0  0  0
  74  2  0   0   0   0  0  0
  75  0  0   0  14   0  0  0
  76  0  0   4   0   0  1  0
  77  0  0   0  15   0  0  0
  78  3  0   0   0   0  0  0
  79  0  0   2   0   0  0  0
  80  0  2   0   0   0  0  0
  81  0  0   2   0   0  0  0
  82  2  0   0   0   0  0  0
  83  0  0   0  16   0  0  0
  84  0  0   4   0   0  1  0
  85  0  0   0  17   0  0  0
  86  3  0   0   0   0  0  0
  87  0  0   2   0   0  0  0
  88  0  2   0   0   0  0  0
  89  0  0   2   0   0  0  0
  90  2  0   0   0   0  0  0
  91  0  0   0  18   0  0  0
  92  0  0   4   0   0  1  0
  93  0  0   0  19   0  0  0
  94  3  0   0   0   0  0  0
  95  0  0   2   0   0  0  0
  96  0  2   0   0   0  0  0
  97  0  0   2   0   0  0  0
  98  2  0   0   0   0  0  0
  99  0  0   0  20   0  0  0
 100  0  0   4   0   0  1  0
 101  0  0   0  21   0  0  0
 102  3  0   0   0   0  0  0
 103  0  0   2   0   0  0  0
 104  0  2   0   0   0  0  0
 105  0  0   2   0   0  0  0
 106  2  0   0   0   0  0  0
 107  0  0   0  22   0  0  0
 108  0  0   4   0   0  1  0
 109  0  0   0  23   0  0  0
 110  3  0   0   0   0  0  0
 111  0  0   2   0   0  0  0
 112  0  2   0   0   0  0  0
 113  0  0   2   0   0  0  0
 114  2  0   0   0   0  0  0
 115  0  0   0  24   0  0  0
 116  0  0   4   0   0  1  0
 117  0  0   0  25   0  0  0
 118  3  0   0   0   0  0  0
 119  0  0   2   0   0  0  0
 120  0  2   0   0   0  0  0
 121  0  0   2   0   0  0  0
 122  2  0   0   0   0  0  0
 123  0  0   0  26   0  0  0
 124  0  0   4   0   0  1  0
 125  0  0   0  27   0  0  0
 126  3  0   0   0   0  0  0
 127  0  0   2   0   0  0  0
 128  0  2   0   0   0  0  0
 129  0  0   2   0   0  0  0
 130  2  0   0   0   0  0  0
 131  0  0   0  28   0  0  0
 132  0  0   4   0   0  1  0
 133  0  0   0  29   0  0  0
 134  4  0   0   0   0  0  0
 135  0  1   0   0   0  0  0
 136  1  0   0   0   0  0  0
 137  0  0   1   0   0  0  0
 138  0  0   2   0   0  0  0
 139  0  2   0   0   0  0  0
 140  0  0   2   0   0  0  0
 141  2  0   0   0   0  0  0
 142  0  0   0  30   0  0  0
 143  0  0   4   0   0  1  0
 144  0  0   0  31   0  0  0
 145  3  0   0   0   0  0  0
 146  0  0   2   0   0  0  0
 147  0  2   0   0   0  0  0
 148  0  0   2   0   0  0  0
 149  2  0   0   0   0  0  0
 150  0  0   0  32   0  0  0
 151  0  0   4   0   0  1  0
 152  0  0   0  33   0  0  0
 153  3  0   0   0   0  0  0
 154  0  0   2   0   0  0  0
 155  0  2   0   0   0  0  0
 156  0  0   2   0   0  0  0
 157  2  0   0   0   0  0  0
 158  0  0   0  34   0  0  0
 159  0  0   4   0   0  1  0
 160  0  0   0  35   0  0  0
 161  3  0   0   0   0  0  0
 162  0  0   2   0   0  0  0
 163  0  2   0   0   0  0  0
 164  0  0   2   0   0  0  0
 165  2  0   0   0   0  0  0
 166  0  0   0  36   0  0  0
 167  0  0   4   0   0  1  0
 168  0  0   0  37   0  0  0
 169  3  0   0   0   0  0  0
 170  0  0   2   0   0  0  0
 171  0  2   0   0   0  0  0
 172  0  0   2   0   0  0  0
 173  2  0   0   0   0  0  0
 174  0  0   0  38   0  0  0
 175  0  0   4   0   0  1  0
 176  0  0   0  39   0  0  0
 177  3  0   0   0   0  0  0
 178  0  0   2   0   0  0  0
 179  0  2   0   0   0  0  0
 180  0  0   2   0   0  0  0
 181  2  0   0   0   0  0  0
 182  0  0   0  40   0  0  0
 183  0  0   4   0   0  1  0
 184  0  0   0  41   0  0  0
 185  3  0   0   0   0  0  0
 186  0  0   2   0   0  0  0
 187  0  2   0   0   0  0  0
 188  0  0   2   0   0  0  0
 189  2  0   0   0   0  0  0
 190  0  0   0  42   0  0  0
 191  0  0   4   0   0  1  0
 192  0  0   0  43   0  0  0
 193  3  0   0   0   0  0  0
 194  0  0   2   0   0  0  0
 195  0  2   0   0   0  0  0
 196  0  0   2   0   0  0  0
 197  2  0   0   0   0  0  0
 198  0  0   0  44   0  0  0
 199  0  0   4   0   0  1  0
 200  0  0   0  45   0  0  0
 201  4  0   0   0   0  0  0
 202  0  1   0   0   0  0  0
 203  1  0   0   0   0  0  0
 204  0  0   1   0   0  0  0
 205  0  0   2   0   0  0  0
 206  0  2   0   0   0  0  0
 207  0  0   2   0   0  0  0
 208  2  0   0   0   0  0  0
 209  0  0   0  46   0  0  0
 210  0  0   4   0   0  1  0
 211  0  0   0  47   0  0  0
 212  3  0   0   0   0  0  0
 213  0  0   2   0   0  0  0
 214  0  2   0   0   0  0  0
 215  0  0   2   0   0  0  0
 216  2  0   0   0   0  0  0
 217  0  0   0  48   0  0  0
 218  0  0   4   0   0  1  0
 219  0  0   0  49   0  0  0
 220  3  0   0   0   0  0  0
 221  0  0   2   0   0  0  0
 222  0  2   0   0   0  0  0
 223  0  0   2   0   0  0  0
 224  2  0   0   0   0  0  0
 225  0  0   0  50   0  0  0
 226  0  0   4   0   0  1  0
 227  0  0   0  51   0  0  0
 228  3  0   0   0   0  0  0
 229  0  0   2   0   0  0  0
 230  0  2   0   0   0  0  0
 231  0  0   2   0   0  0  0
 232  2  0   0   0   0  0  0
 233  0  0   0  52   0  0  0
 234  0  0   4   0   0  1  0
 235  0  0   0  53   0  0  0
 236  3  0   0   0   0  0  0
 237  0  0   2   0   0  0  0
 238  0  2   0   0   0  0  0
 239  0  0   2   0   0  0  0
 240  2  0   0   0   0  0  0
 241  0  0   0  54   0  0  0
 242  0  0   4   0   0  1  0
 243  0  0   0  55   0  0  0
 244  3  0   0   0   0  0  0
 245  0  0   2   0   0  0  0
 246  0  2   0   0   0  0  0
 247  0  0   2   0   0  0  0
 248  2  0   0   0   0  0  0
 249  0  0   0  56   0  0  0
 250  0  0   4   0   0  1  0
 251  0  0   0  57   0  0  0
 252  3  0   0   0   0  0  0
 253  0  0   2   0   0  0  0
 254  0  2   0   0   0  0  0
 255  0  0   2   0   0  0  0
 256  2  0   0   0   0  0  0
 257  0  0   0  58   0  0  0
 258  0  0   4   0   0  1  0
 259  0  0   0  59   0  0  0
 260  3  0   0   0   0  0  0
 261  0  0   2   0   0  0  0
 262  0  2   0   0   0  0  0
 263  0  0   2   0   0  0  0
 264  2  0   0   0   0  0  0
 265  0  0   0  60   0  0  0
 266  0  0   4   0   0  1  0
 267  0  0   0  61   0  0  0
 268  4  0   0   0   0  0  0
 269  0  1   0   0   0  0  0
 270  1  0   0   0   0  0  0
 271  0  0   1   0   0  0  0
 272  0  0   2   0   0  0  0
 273  0  2   0   0   0  0  0
 274  0  0   2   0   0  0  0
 275  2  0   0   0   0  0  0
 276  0  0   0  62   0  0  0
 277  0  0   4   0   0  1  0
 278  0  0   0  63   0  0  0
 279  3  0   0   0   0  0  0
 280  0  0   2   0   0  0  0
 281  0  2   0   0   0  0  0
 282  0  0   2   0   0  0  0
 283  2  0   0   0   0  0  0
 284  0  0   0  64   0  0  0
 285  0  0   4   0   0  1  0
 286  0  0   0  65   0  0  0
 287  3  0   0   0   0  0  0
 288  0  0   2   0   0  0  0
 289  0  2   0   0   0  0  0
 290  0  0   2   0   0  0  0
 291  2  0   0   0   0  0  0
 292  0  0   0  66   0  0  0
 293  0  0   4   0   0  1  0
 294  0  0   0  67   0  0  0
 295  3  0   0   0   0  0  0
 296  0  0   2   0   0  0  0
 297  0  2   0   0   0  0  0
 298  0  0   2   0   0  0  0
 299  2  0   0   0   0  0  0
 300  0  0   0  68   0  0  0
 301  0  0   4   0   0  1  0
 302  0  0   0  69   0  0  0
 303  3  0   0   0   0  0  0
 304  0  0   2   0   0  0  0
 305  0  2   0   0   0  0  0
 306  0  0   2   0   0  0  0
 307  2  0   0   0   0  0  0
 308  0  0   0  70   0  0  0
 309  0  0   4   0   0  1  0
 310  0  0   0  71   0  0  0
 311  3  0   0   0   0  0  0
 312  0  0   2   0   0  0  0
 313  0  2   0   0   0  0  0
 314  0  0   2   0   0  0  0
 315  2  0   0   0   0  0  0
 316  0  0   0  72   0  0  0
 317  0  0   4   0   0  1  0
 318  0  0   0  73   0  0  0
 319  3  0   0   0   0  0  0
 320  0  0   2   0   0  0  0
 321  0  2   0   0   0  0  0
 322  0  0   2   0   0  0  0
 323  2  0   0   0   0  0  0
 324  0  0   0  74   0  0  0
 325  0  0   4   0   0  1  0
 326  0  0   0  75   0  0  0
 327  3  0   0   0   0  0  0
 328  0  0   2   0   0  0  0
 329  0  2   0   0   0  0  0
 330  0  0   2   0   0  0  0
 331  2  0   0   0   0  0  0
 332  0  0   0  76   0  0  0
 333  0  0   4   0   0  1  0
 334  0  0   0  77   0  0  0
[RF]
1         2500 1 2 500 0 0
2         2500 3 4 500 0 1.5708

# Format of trapezoid gradients:
# id amplitude rise flat fall delay
# ..      Hz/m   us   us   us    us
[TRAP]
 1  3.23232e+06 100 3200 100   0
 2            0  10  480  10   0
 3 -4.70588e+06 140 1220 140   0
 4  6.66667e+06 200 3000 200   0
 5  4.70588e+06 140 1220 140   0
 6 -3.45324e+06 110 1280 110   0
 7  3.45324e+06 110 1280 110   0
 8 -2.23776e+06  70 1360  70   0
 9  2.23776e+06  70 1360  70   0
10 -1.09589e+06  40 1420  40   0
11  1.09589e+06  40 1420  40   0
12            0  10 1480  10   0
13           -0  10 1480  10   0
14 -4.63235e+06 140 1220 140   0
15  4.63235e+06 140 1220 140   0
16 -3.35714e+06 100 1300 100   0
17  3.35714e+06 100 1300 100   0
18 -2.16783e+06  70 1360  70   0
19  2.16783e+06  70 1360  70   0
20 -1.02041e+06  30 1440  30   0
21  1.02041e+06  30 1440  30   0
22      67114.1  10 1480  10   0
23     -67114.1  10 1480  10   0
24  1.16438e+06  40 1420  40   0
25 -1.16438e+06  40 1420  40   0
26  2.30769e+06  70 1360  70   0
27 -2.30769e+06  70 1360  70   0
28  3.52518e+06 110 1280 110   0
29 -3.52518e+06 110 1280 110   0
30 -4.55882e+06 140 1220 140   0
31  4.55882e+06 140 1220 140   0
32 -3.28571e+06 100 1300 100   0
33  3.28571e+06 100 1300 100   0
34  -2.0979e+06  70 1360  70   0
35   2.0979e+06  70 1360  70   0
36      -952381  30 1440  30   0
37       952381  30 1440  30   0
38       134228  10 1480  10   0
39      -134228  10 1480  10   0
40  1.23288e+06  40 1420  40   0
41 -1.23288e+06  40 1420  40   0
42  2.37762e+06  70 1360  70   0
43 -2.37762e+06  70 1360  70   0
44  3.59712e+06 110 1280 110   0
45 -3.59712e+06 110 1280 110   0
46 -4.48529e+06 140 1220 140   0
47  4.48529e+06 140 1220 140   0
48 -3.21429e+06 100 1300 100   0
49  3.21429e+06 100 1300 100   0
50 -2.01389e+06  60 1380  60   0
51  2.01389e+06  60 1380  60   0
52      -884354  30 1440  30   0
53       884354  30 1440  30   0
54       201342  10 1480  10   0
55      -201342  10 1480  10   0
56  1.30137e+06  40 1420  40   0
57 -1.30137e+06  40 1420  40   0
58  2.46479e+06  80 1340  80   0
59 -2.46479e+06  80 1340  80   0
60  3.66906e+06 110 1280 110   0
61 -3.66906e+06 110 1280 110   0
62 -4.37956e+06 130 1240 130   0
63  4.37956e+06 130 1240 130   0
64 -3.14286e+06 100 1300 100   0
65  3.14286e+06 100 1300 100   0
66 -1.94444e+06  60 1380  60   0
67  1.94444e+06  60 1380  60   0
68      -816327  30 1440  30   0
69       816327  30 1440  30   0
70       268456  10 1480  10   0
71      -268456  10 1480  10   0
72  1.37931e+06  50 1400  50   0
73 -1.37931e+06  50 1400  50   0
74  2.53521e+06  80 1340  80   0
75 -2.53521e+06  80 1340  80   0
76  3.74101e+06 110 1280 110   0
77 -3.74101e+06 110 1280 110   0
78 -4.30657e+06 130 1240 130   0
79  4.30657e+06 130 1240 130   0
80 -3.04965e+06  90 1320  90   0
81  3.04965e+06  90 1320  90   0
82   -1.875e+06  60 1380  60   0
83    1.875e+06  60 1380  60   0
84      -748299  30 1440  30   0
85       748299  30 1440  30   0
86       335570  10 1480  10   0
87      -335570  10 1480  10   0
88  1.44828e+06  50 1400  50   0
89 -1.44828e+06  50 1400  50   0
90  2.60563e+06  80 1340  80   0
91 -2.60563e+06  80 1340  80   0
92  3.84058e+06 120 1260 120   0
93 -3.84058e+06 120 1260 120   0
94 -4.23358e+06 130 1240 130   0
95  4.23358e+06 130 1240 130   0
96 -2.97872e+06  90 1320  90   0
97  2.97872e+06  90 1320  90   0
98 -1.80556e+06  60 1380  60   0
99  1.80556e+06  60 1380  60   0
100      -675676  20 1460  20   0
101       675676  20 1460  20   0
102       405405  20 1460  20   0
103      -405405  20 1460  20   0
104  1.51724e+06  50 1400  50   0
105 -1.51724e+06  50 1400  50   0
106  2.67606e+06  80 1340  80   0
107 -2.67606e+06  80 1340  80   0
108  3.91304e+06 120 1260 120   0
109 -3.91304e+06 120 1260 120   0
110 -4.16058e+06 130 1240 130   0
111  4.16058e+06 130 1240 130   0
112  -2.9078e+06  90 1320  90   0
113   2.9078e+06  90 1320  90   0
114 -1.73611e+06  60 1380  60   0
115  1.73611e+06  60 1380  60   0
116      -608108  20 1460  20   0
117       608108  20 1460  20   0
118       472973  20 1460  20   0
119      -472973  20 1460  20   0
120  1.58621e+06  50 1400  50   0
121 -1.58621e+06  50 1400  50   0
122  2.76596e+06  90 1320  90   0
123 -2.76596e+06  90 1320  90   0
124  3.98551e+06 120 1260 120   0
125 -3.98551e+06 120 1260 120   0
126 -4.05797e+06 120 1260 120   0
127  4.05797e+06 120 1260 120   0
128 -2.83688e+06  90 1320  90   0
129  2.83688e+06  90 1320  90   0
130 -1.65517e+06  50 1400  50   0
131  1.65517e+06  50 1400  50   0
132      -540541  20 1460  20   0
133       540541  20 1460  20   0

# Format of ADC events:
# id num dwell delay freq phase
# ..  ..    ns    us   Hz   rad
[ADC]
1 800 3750 195 0 0

# Format of delays:
# id delay (us)
[DELAYS]
1 450
2 1200
3 700
4 4917700

# Sequence Shapes
[SHAPES]

shape_id 1
num_samples 100
1
0
0
97

shape_id 2
num_samples 100
0
0
98

shape_id 3
num_samples 200
1
0
0
197

shape_id 4
num_samples 200
0
0
198

