# Pulseq sequence file
# Created by MATLAB mr toolbox

[VERSION]
major 1
minor 3
revision 1

[DEFINITIONS]
Bandwidth [Hz] 266666.667 
ESP [s] 0.008 
ETL 16 
FOV 0.01 0.01 
Name tse_2d 
Ndummy 1 
Nx 200 
Ny 128 
SliceThickness 10 
TR 5 
grad_t 10 
tx_t 1 

# Format of blocks:
#  #  D RF  GX  GY  GZ ADC EXT
[BLOCKS]
  1  0  1   0   0   0  0  0
  2  1  0   0   0   0  0  0
  3  0  0   1   0   0  0  0
  4  0  2   0   0   0  0  0
  5  2  0   0   0   0  0  0
  6  0  0   0   2   0  0  0
  7  0  0   3   0   0  1  0
  8  0  0   0   4   0  0  0
  9  3  0   0   0   0  0  0
 10  0  2   0   0   0  0  0
 11  2  0   0   0   0  0  0
 12  0  0   0   5   0  0  0
 13  0  0   3   0   0  1  0
 14  0  0   0   6   0  0  0
 15  3  0   0   0   0  0  0
 16  0  2   0   0   0  0  0
 17  2  0   0   0   0  0  0
 18  0  0   0   7   0  0  0
 19  0  0   3   0   0  1  0
 20  0  0   0   8   0  0  0
 21  3  0   0   0   0  0  0
 22  0  2   0   0   0  0  0
 23  2  0   0   0   0  0  0
 24  0  0   0   9   0  0  0
 25  0  0   3   0   0  1  0
 26  0  0   0  10   0  0  0
 27  3  0   0   0   0  0  0
 28  0  2   0   0   0  0  0
 29  2  0   0   0   0  0  0
 30  0  0   0  11   0  0  0
 31  0  0   3   0   0  1  0
 32  0  0   0  12   0  0  0
 33  3  0   0   0   0  0  0
 34  0  2   0   0   0  0  0
 35  2  0   0   0   0  0  0
 36  0  0   0  13   0  0  0
 37  0  0   3   0   0  1  0
 38  0  0   0  14   0  0  0
 39  3  0   0   0   0  0  0
 40  0  2   0   0   0  0  0
 41  2  0   0   0   0  0  0
 42  0  0   0  15   0  0  0
 43  0  0   3   0   0  1  0
 44  0  0   0  16   0  0  0
 45  3  0   0   0   0  0  0
 46  0  2   0   0   0  0  0
 47  2  0   0   0   0  0  0
 48  0  0   0  17   0  0  0
 49  0  0   3   0   0  1  0
 50  0  0   0  18   0  0  0
 51  3  0   0   0   0  0  0
 52  0  2   0   0   0  0  0
 53  2  0   0   0   0  0  0
 54  0  0   0  19   0  0  0
 55  0  0   3   0   0  1  0
 56  0  0   0  20   0  0  0
 57  3  0   0   0   0  0  0
 58  0  2   0   0   0  0  0
 59  2  0   0   0   0  0  0
 60  0  0   0  18   0  0  0
 61  0  0   3   0   0  1  0
 62  0  0   0  17   0  0  0
 63  3  0   0   0   0  0  0
 64  0  2   0   0   0  0  0
 65  2  0   0   0   0  0  0
 66  0  0   0  16   0  0  0
 67  0  0   3   0   0  1  0
 68  0  0   0  15   0  0  0
 69  3  0   0   0   0  0  0
 70  0  2   0   0   0  0  0
 71  2  0   0   0   0  0  0
 72  0  0   0  14   0  0  0
 73  0  0   3   0   0  1  0
 74  0  0   0  13   0  0  0
 75  3  0   0   0   0  0  0
 76  0  2   0   0   0  0  0
 77  2  0   0   0   0  0  0
 78  0  0   0  12   0  0  0
 79  0  0   3   0   0  1  0
 80  0  0   0  11   0  0  0
 81  3  0   0   0   0  0  0
 82  0  2   0   0   0  0  0
 83  2  0   0   0   0  0  0
 84  0  0   0  10   0  0  0
 85  0  0   3   0   0  1  0
 86  0  0   0   9   0  0  0
 87  3  0   0   0   0  0  0
 88  0  2   0   0   0  0  0
 89  2  0   0   0   0  0  0
 90  0  0   0   8   0  0  0
 91  0  0   3   0   0  1  0
 92  0  0   0   7   0  0  0
 93  3  0   0   0   0  0  0
 94  0  2   0   0   0  0  0
 95  2  0   0   0   0  0  0
 96  0  0   0   6   0  0  0
 97  0  0   3   0   0  1  0
 98  0  0   0   5   0  0  0
 99  4  0   0   0   0  0  0
100  0  1   0   0   0  0  0
101  1  0   0   0   0  0  0
102  0  0   1   0   0  0  0
103  0  2   0   0   0  0  0
104  2  0   0   0   0  0  0
105  0  0   0   2   0  0  0
106  0  0   3   0   0  1  0
107  0  0   0   4   0  0  0
108  3  0   0   0   0  0  0
109  0  2   0   0   0  0  0
110  2  0   0   0   0  0  0
111  0  0   0   5   0  0  0
112  0  0   3   0   0  1  0
113  0  0   0   6   0  0  0
114  3  0   0   0   0  0  0
115  0  2   0   0   0  0  0
116  2  0   0   0   0  0  0
117  0  0   0   7   0  0  0
118  0  0   3   0   0  1  0
119  0  0   0   8   0  0  0
120  3  0   0   0   0  0  0
121  0  2   0   0   0  0  0
122  2  0   0   0   0  0  0
123  0  0   0   9   0  0  0
124  0  0   3   0   0  1  0
125  0  0   0  10   0  0  0
126  3  0   0   0   0  0  0
127  0  2   0   0   0  0  0
128  2  0   0   0   0  0  0
129  0  0   0  11   0  0  0
130  0  0   3   0   0  1  0
131  0  0   0  12   0  0  0
132  3  0   0   0   0  0  0
133  0  2   0   0   0  0  0
134  2  0   0   0   0  0  0
135  0  0   0  13   0  0  0
136  0  0   3   0   0  1  0
137  0  0   0  14   0  0  0
138  3  0   0   0   0  0  0
139  0  2   0   0   0  0  0
140  2  0   0   0   0  0  0
141  0  0   0  15   0  0  0
142  0  0   3   0   0  1  0
143  0  0   0  16   0  0  0
144  3  0   0   0   0  0  0
145  0  2   0   0   0  0  0
146  2  0   0   0   0  0  0
147  0  0   0  17   0  0  0
148  0  0   3   0   0  1  0
149  0  0   0  18   0  0  0
150  3  0   0   0   0  0  0
151  0  2   0   0   0  0  0
152  2  0   0   0   0  0  0
153  0  0   0  19   0  0  0
154  0  0   3   0   0  1  0
155  0  0   0  20   0  0  0
156  3  0   0   0   0  0  0
157  0  2   0   0   0  0  0
158  2  0   0   0   0  0  0
159  0  0   0  18   0  0  0
160  0  0   3   0   0  1  0
161  0  0   0  17   0  0  0
162  3  0   0   0   0  0  0
163  0  2   0   0   0  0  0
164  2  0   0   0   0  0  0
165  0  0   0  16   0  0  0
166  0  0   3   0   0  1  0
167  0  0   0  15   0  0  0
168  3  0   0   0   0  0  0
169  0  2   0   0   0  0  0
170  2  0   0   0   0  0  0
171  0  0   0  14   0  0  0
172  0  0   3   0   0  1  0
173  0  0   0  13   0  0  0
174  3  0   0   0   0  0  0
175  0  2   0   0   0  0  0
176  2  0   0   0   0  0  0
177  0  0   0  12   0  0  0
178  0  0   3   0   0  1  0
179  0  0   0  11   0  0  0
180  3  0   0   0   0  0  0
181  0  2   0   0   0  0  0
182  2  0   0   0   0  0  0
183  0  0   0  10   0  0  0
184  0  0   3   0   0  1  0
185  0  0   0   9   0  0  0
186  3  0   0   0   0  0  0
187  0  2   0   0   0  0  0
188  2  0   0   0   0  0  0
189  0  0   0   8   0  0  0
190  0  0   3   0   0  1  0
191  0  0   0   7   0  0  0
192  3  0   0   0   0  0  0
193  0  2   0   0   0  0  0
194  2  0   0   0   0  0  0
195  0  0   0   6   0  0  0
196  0  0   3   0   0  1  0
197  0  0   0   5   0  0  0
198  4  0   0   0   0  0  0
199  0  1   0   0   0  0  0
200  1  0   0   0   0  0  0
201  0  0   1   0   0  0  0
202  0  2   0   0   0  0  0
203  2  0   0   0   0  0  0
204  0  0   0  21   0  0  0
205  0  0   3   0   0  1  0
206  0  0   0  22   0  0  0
207  3  0   0   0   0  0  0
208  0  2   0   0   0  0  0
209  2  0   0   0   0  0  0
210  0  0   0  23   0  0  0
211  0  0   3   0   0  1  0
212  0  0   0  24   0  0  0
213  3  0   0   0   0  0  0
214  0  2   0   0   0  0  0
215  2  0   0   0   0  0  0
216  0  0   0  25   0  0  0
217  0  0   3   0   0  1  0
218  0  0   0  26   0  0  0
219  3  0   0   0   0  0  0
220  0  2   0   0   0  0  0
221  2  0   0   0   0  0  0
222  0  0   0  27   0  0  0
223  0  0   3   0   0  1  0
224  0  0   0  28   0  0  0
225  3  0   0   0   0  0  0
226  0  2   0   0   0  0  0
227  2  0   0   0   0  0  0
228  0  0   0  29   0  0  0
229  0  0   3   0   0  1  0
230  0  0   0  30   0  0  0
231  3  0   0   0   0  0  0
232  0  2   0   0   0  0  0
233  2  0   0   0   0  0  0
234  0  0   0  31   0  0  0
235  0  0   3   0   0  1  0
236  0  0   0  32   0  0  0
237  3  0   0   0   0  0  0
238  0  2   0   0   0  0  0
239  2  0   0   0   0  0  0
240  0  0   0  33   0  0  0
241  0  0   3   0   0  1  0
242  0  0   0  34   0  0  0
243  3  0   0   0   0  0  0
244  0  2   0   0   0  0  0
245  2  0   0   0   0  0  0
246  0  0   0  35   0  0  0
247  0  0   3   0   0  1  0
248  0  0   0  36   0  0  0
249  3  0   0   0   0  0  0
250  0  2   0   0   0  0  0
251  2  0   0   0   0  0  0
252  0  0   0  37   0  0  0
253  0  0   3   0   0  1  0
254  0  0   0  38   0  0  0
255  3  0   0   0   0  0  0
256  0  2   0   0   0  0  0
257  2  0   0   0   0  0  0
258  0  0   0  39   0  0  0
259  0  0   3   0   0  1  0
260  0  0   0  40   0  0  0
261  3  0   0   0   0  0  0
262  0  2   0   0   0  0  0
263  2  0   0   0   0  0  0
264  0  0   0  41   0  0  0
265  0  0   3   0   0  1  0
266  0  0   0  42   0  0  0
267  3  0   0   0   0  0  0
268  0  2   0   0   0  0  0
269  2  0   0   0   0  0  0
270  0  0   0  43   0  0  0
271  0  0   3   0   0  1  0
272  0  0   0  44   0  0  0
273  3  0   0   0   0  0  0
274  0  2   0   0   0  0  0
275  2  0   0   0   0  0  0
276  0  0   0  45   0  0  0
277  0  0   3   0   0  1  0
278  0  0   0  46   0  0  0
279  3  0   0   0   0  0  0
280  0  2   0   0   0  0  0
281  2  0   0   0   0  0  0
282  0  0   0  47   0  0  0
283  0  0   3   0   0  1  0
284  0  0   0  48   0  0  0
285  3  0   0   0   0  0  0
286  0  2   0   0   0  0  0
287  2  0   0   0   0  0  0
288  0  0   0  49   0  0  0
289  0  0   3   0   0  1  0
290  0  0   0  50   0  0  0
291  3  0   0   0   0  0  0
292  0  2   0   0   0  0  0
293  2  0   0   0   0  0  0
294  0  0   0  51   0  0  0
295  0  0   3   0   0  1  0
296  0  0   0  52   0  0  0
297  4  0   0   0   0  0  0
298  0  1   0   0   0  0  0
299  1  0   0   0   0  0  0
300  0  0   1   0   0  0  0
301  0  2   0   0   0  0  0
302  2  0   0   0   0  0  0
303  0  0   0  53   0  0  0
304  0  0   3   0   0  1  0
305  0  0   0  54   0  0  0
306  3  0   0   0   0  0  0
307  0  2   0   0   0  0  0
308  2  0   0   0   0  0  0
309  0  0   0  55   0  0  0
310  0  0   3   0   0  1  0
311  0  0   0  56   0  0  0
312  3  0   0   0   0  0  0
313  0  2   0   0   0  0  0
314  2  0   0   0   0  0  0
315  0  0   0  57   0  0  0
316  0  0   3   0   0  1  0
317  0  0   0  58   0  0  0
318  3  0   0   0   0  0  0
319  0  2   0   0   0  0  0
320  2  0   0   0   0  0  0
321  0  0   0  59   0  0  0
322  0  0   3   0   0  1  0
323  0  0   0  60   0  0  0
324  3  0   0   0   0  0  0
325  0  2   0   0   0  0  0
326  2  0   0   0   0  0  0
327  0  0   0  61   0  0  0
328  0  0   3   0   0  1  0
329  0  0   0  62   0  0  0
330  3  0   0   0   0  0  0
331  0  2   0   0   0  0  0
332  2  0   0   0   0  0  0
333  0  0   0  63   0  0  0
334  0  0   3   0   0  1  0
335  0  0   0  64   0  0  0
336  3  0   0   0   0  0  0
337  0  2   0   0   0  0  0
338  2  0   0   0   0  0  0
339  0  0   0  65   0  0  0
340  0  0   3   0   0  1  0
341  0  0   0  66   0  0  0
342  3  0   0   0   0  0  0
343  0  2   0   0   0  0  0
344  2  0   0   0   0  0  0
345  0  0   0  67   0  0  0
[RF]
1         2500 1 2 200 0 0
2         2500 3 4 200 0 1.5708

# Format of trapezoid gradients:
# id amplitude rise flat fall delay
# ..      Hz/m   us   us   us    us
[TRAP]
 1  3.23232e+06 100 3200 100   0
 2 -4.70588e+06 140 1220 140   0
 3  6.66667e+06 200 3000 200   0
 4  4.70588e+06 140 1220 140   0
 5 -4.05797e+06 120 1260 120   0
 6  4.05797e+06 120 1260 120   0
 7 -3.45324e+06 110 1280 110   0
 8  3.45324e+06 110 1280 110   0
 9 -2.83688e+06  90 1320  90   0
10  2.83688e+06  90 1320  90   0
11 -2.23776e+06  70 1360  70   0
12  2.23776e+06  70 1360  70   0
13 -1.65517e+06  50 1400  50   0
14  1.65517e+06  50 1400  50   0
15 -1.09589e+06  40 1420  40   0
16  1.09589e+06  40 1420  40   0
17      -540541  20 1460  20   0
18       540541  20 1460  20   0
19            0  10 1480  10   0
20           -0  10 1480  10   0
21 -4.63235e+06 140 1220 140   0
22  4.63235e+06 140 1220 140   0
23 -3.98551e+06 120 1260 120   0
24  3.98551e+06 120 1260 120   0
25 -3.35714e+06 100 1300 100   0
26  3.35714e+06 100 1300 100   0
27 -2.76596e+06  90 1320  90   0
28  2.76596e+06  90 1320  90   0
29 -2.16783e+06  70 1360  70   0
30  2.16783e+06  70 1360  70   0
31 -1.58621e+06  50 1400  50   0
32  1.58621e+06  50 1400  50   0
33 -1.02041e+06  30 1440  30   0
34  1.02041e+06  30 1440  30   0
35      -472973  20 1460  20   0
36       472973  20 1460  20   0
37      67114.1  10 1480  10   0
38     -67114.1  10 1480  10   0
39       608108  20 1460  20   0
40      -608108  20 1460  20   0
41  1.16438e+06  40 1420  40   0
42 -1.16438e+06  40 1420  40   0
43  1.73611e+06  60 1380  60   0
44 -1.73611e+06  60 1380  60   0
45  2.30769e+06  70 1360  70   0
46 -2.30769e+06  70 1360  70   0
47   2.9078e+06  90 1320  90   0
48  -2.9078e+06  90 1320  90   0
49  3.52518e+06 110 1280 110   0
50 -3.52518e+06 110 1280 110   0
51  4.16058e+06 130 1240 130   0
52 -4.16058e+06 130 1240 130   0
53 -4.55882e+06 140 1220 140   0
54  4.55882e+06 140 1220 140   0
55 -3.91304e+06 120 1260 120   0
56  3.91304e+06 120 1260 120   0
57 -3.28571e+06 100 1300 100   0
58  3.28571e+06 100 1300 100   0
59 -2.67606e+06  80 1340  80   0
60  2.67606e+06  80 1340  80   0
61  -2.0979e+06  70 1360  70   0
62   2.0979e+06  70 1360  70   0
63 -1.51724e+06  50 1400  50   0
64  1.51724e+06  50 1400  50   0
65      -952381  30 1440  30   0
66       952381  30 1440  30   0
67      -405405  20 1460  20   0
68       405405  20 1460  20   0
69       134228  10 1480  10   0
70      -134228  10 1480  10   0
71       675676  20 1460  20   0
72      -675676  20 1460  20   0
73  1.23288e+06  40 1420  40   0
74 -1.23288e+06  40 1420  40   0
75  1.80556e+06  60 1380  60   0
76 -1.80556e+06  60 1380  60   0
77  2.37762e+06  70 1360  70   0
78 -2.37762e+06  70 1360  70   0
79  2.97872e+06  90 1320  90   0
80 -2.97872e+06  90 1320  90   0
81  3.59712e+06 110 1280 110   0
82 -3.59712e+06 110 1280 110   0
83  4.23358e+06 130 1240 130   0
84 -4.23358e+06 130 1240 130   0
85 -4.48529e+06 140 1220 140   0
86  4.48529e+06 140 1220 140   0
87 -3.84058e+06 120 1260 120   0
88  3.84058e+06 120 1260 120   0
89 -3.21429e+06 100 1300 100   0
90  3.21429e+06 100 1300 100   0
91 -2.60563e+06  80 1340  80   0
92  2.60563e+06  80 1340  80   0
93 -2.01389e+06  60 1380  60   0
94  2.01389e+06  60 1380  60   0
95 -1.44828e+06  50 1400  50   0
96  1.44828e+06  50 1400  50   0
97      -884354  30 1440  30   0
98       884354  30 1440  30   0
99      -335570  10 1480  10   0
100       335570  10 1480  10   0
101       201342  10 1480  10   0
102      -201342  10 1480  10   0
103       748299  30 1440  30   0
104      -748299  30 1440  30   0
105  1.30137e+06  40 1420  40   0
106 -1.30137e+06  40 1420  40   0
107    1.875e+06  60 1380  60   0
108   -1.875e+06  60 1380  60   0
109  2.46479e+06  80 1340  80   0
110 -2.46479e+06  80 1340  80   0
111  3.04965e+06  90 1320  90   0
112 -3.04965e+06  90 1320  90   0
113  3.66906e+06 110 1280 110   0
114 -3.66906e+06 110 1280 110   0
115  4.30657e+06 130 1240 130   0
116 -4.30657e+06 130 1240 130   0
117 -4.37956e+06 130 1240 130   0
118  4.37956e+06 130 1240 130   0
119 -3.74101e+06 110 1280 110   0
120  3.74101e+06 110 1280 110   0
121 -3.14286e+06 100 1300 100   0
122  3.14286e+06 100 1300 100   0
123 -2.53521e+06  80 1340  80   0
124  2.53521e+06  80 1340  80   0
125 -1.94444e+06  60 1380  60   0
126  1.94444e+06  60 1380  60   0
127 -1.37931e+06  50 1400  50   0
128  1.37931e+06  50 1400  50   0
129      -816327  30 1440  30   0
130       816327  30 1440  30   0
131      -268456  10 1480  10   0
132       268456  10 1480  10   0

# Format of ADC events:
# id num dwell delay freq phase
# ..  ..    ns    us   Hz   rad
[ADC]
1 800 3750 195 0 0

# Format of delays:
# id delay (us)
[DELAYS]
1 250
2 700
3 500
4 4870000

# Sequence Shapes
[SHAPES]

shape_id 1
num_samples 100
1
0
0
97

shape_id 2
num_samples 100
0
0
98

shape_id 3
num_samples 200
1
0
0
197

shape_id 4
num_samples 200
0
0
198

