# Pulseq sequence file
# Created by MATLAB mr toolbox

[VERSION]
major 1
minor 3
revision 1

[DEFINITIONS]
Bandwidth [Hz] 200000 
FOV 0.01 0.01 
Name se_2d 
Nspokes 80 
Nx 200 
SliceThickness 0 
TE [s] 0.012 
TR 5 
angle 180 
grad_interval 1e-05 
rf_interval 1e-06 

# Format of blocks:
#  #  D RF  GX  GY  GZ ADC EXT
[BLOCKS]
  1  0  1   0   0   0  0  0
  2  1  0   0   0   0  0  0
  3  0  0   1   1   0  0  0
  4  0  2   0   0   0  0  0
  5  2  0   0   0   0  0  0
  6  0  0   2   2   0  0  0
  7  3  0   0   0   0  0  0
  8  0  1   0   0   0  0  0
  9  1  0   0   0   0  0  0
 10  0  0   1   1   0  0  0
 11  0  2   0   0   0  0  0
 12  2  0   0   0   0  0  0
 13  0  0   2   2   0  0  0
 14  3  0   0   0   0  0  0
 15  0  1   0   0   0  0  0
 16  1  0   0   0   0  0  0
 17  0  0   3   1   0  0  0
 18  0  2   0   0   0  0  0
 19  2  0   0   0   0  0  0
 20  0  0   4   2   0  1  0
 21  3  0   0   0   0  0  0
 22  0  1   0   0   0  0  0
 23  1  0   0   0   0  0  0
 24  0  0   3   1   0  0  0
 25  0  2   0   0   0  0  0
 26  2  0   0   0   0  0  0
 27  0  0   4   2   0  1  0
 28  3  0   0   0   0  0  0
 29  0  1   0   0   0  0  0
 30  1  0   0   0   0  0  0
 31  0  0   3   1   0  0  0
 32  0  2   0   0   0  0  0
 33  2  0   0   0   0  0  0
 34  0  0   4   2   0  1  0
 35  3  0   0   0   0  0  0
 36  0  1   0   0   0  0  0
 37  1  0   0   0   0  0  0
 38  0  0   3   1   0  0  0
 39  0  2   0   0   0  0  0
 40  2  0   0   0   0  0  0
 41  0  0   4   2   0  1  0
 42  3  0   0   0   0  0  0
 43  0  1   0   0   0  0  0
 44  1  0   0   0   0  0  0
 45  0  0   3   1   0  0  0
 46  0  2   0   0   0  0  0
 47  2  0   0   0   0  0  0
 48  0  0   4   2   0  1  0
 49  3  0   0   0   0  0  0
 50  0  1   0   0   0  0  0
 51  1  0   0   0   0  0  0
 52  0  0   3   1   0  0  0
 53  0  2   0   0   0  0  0
 54  2  0   0   0   0  0  0
 55  0  0   4   2   0  1  0
 56  3  0   0   0   0  0  0
 57  0  1   0   0   0  0  0
 58  1  0   0   0   0  0  0
 59  0  0   3   1   0  0  0
 60  0  2   0   0   0  0  0
 61  2  0   0   0   0  0  0
 62  0  0   4   2   0  1  0
 63  3  0   0   0   0  0  0
 64  0  1   0   0   0  0  0
 65  1  0   0   0   0  0  0
 66  0  0   3   1   0  0  0
 67  0  2   0   0   0  0  0
 68  2  0   0   0   0  0  0
 69  0  0   4   2   0  1  0
 70  3  0   0   0   0  0  0
 71  0  1   0   0   0  0  0
 72  1  0   0   0   0  0  0
 73  0  0   3   1   0  0  0
 74  0  2   0   0   0  0  0
 75  2  0   0   0   0  0  0
 76  0  0   4   2   0  1  0
 77  3  0   0   0   0  0  0
 78  0  1   0   0   0  0  0
 79  1  0   0   0   0  0  0
 80  0  0   3   1   0  0  0
 81  0  2   0   0   0  0  0
 82  2  0   0   0   0  0  0
 83  0  0   4   2   0  1  0
 84  3  0   0   0   0  0  0
 85  0  1   0   0   0  0  0
 86  1  0   0   0   0  0  0
 87  0  0   3   1   0  0  0
 88  0  2   0   0   0  0  0
 89  2  0   0   0   0  0  0
 90  0  0   4   2   0  1  0
 91  3  0   0   0   0  0  0
 92  0  1   0   0   0  0  0
 93  1  0   0   0   0  0  0
 94  0  0   3   1   0  0  0
 95  0  2   0   0   0  0  0
 96  2  0   0   0   0  0  0
 97  0  0   4   2   0  1  0
 98  3  0   0   0   0  0  0
 99  0  1   0   0   0  0  0
100  1  0   0   0   0  0  0
101  0  0   3   1   0  0  0
102  0  2   0   0   0  0  0
103  2  0   0   0   0  0  0
104  0  0   4   2   0  1  0
105  3  0   0   0   0  0  0
106  0  1   0   0   0  0  0
107  1  0   0   0   0  0  0
108  0  0   3   1   0  0  0
109  0  2   0   0   0  0  0
110  2  0   0   0   0  0  0
111  0  0   4   2   0  1  0
112  3  0   0   0   0  0  0
113  0  1   0   0   0  0  0
114  1  0   0   0   0  0  0
115  0  0   3   1   0  0  0
116  0  2   0   0   0  0  0
117  2  0   0   0   0  0  0
118  0  0   4   2   0  1  0
119  3  0   0   0   0  0  0
120  0  1   0   0   0  0  0
121  1  0   0   0   0  0  0
122  0  0   3   1   0  0  0
123  0  2   0   0   0  0  0
124  2  0   0   0   0  0  0
125  0  0   4   2   0  1  0
126  3  0   0   0   0  0  0
127  0  1   0   0   0  0  0
128  1  0   0   0   0  0  0
129  0  0   3   1   0  0  0
130  0  2   0   0   0  0  0
131  2  0   0   0   0  0  0
132  0  0   4   2   0  1  0
133  3  0   0   0   0  0  0
134  0  1   0   0   0  0  0
135  1  0   0   0   0  0  0
136  0  0   3   1   0  0  0
137  0  2   0   0   0  0  0
138  2  0   0   0   0  0  0
139  0  0   4   2   0  1  0
140  3  0   0   0   0  0  0
141  0  1   0   0   0  0  0
142  1  0   0   0   0  0  0
143  0  0   3   1   0  0  0
144  0  2   0   0   0  0  0
145  2  0   0   0   0  0  0
146  0  0   4   2   0  1  0
147  3  0   0   0   0  0  0
148  0  1   0   0   0  0  0
149  1  0   0   0   0  0  0
150  0  0   3   1   0  0  0
151  0  2   0   0   0  0  0
152  2  0   0   0   0  0  0
153  0  0   4   2   0  1  0
154  3  0   0   0   0  0  0
155  0  1   0   0   0  0  0
156  1  0   0   0   0  0  0
157  0  0   3   1   0  0  0
158  0  2   0   0   0  0  0
159  2  0   0   0   0  0  0
160  0  0   4   2   0  1  0
161  3  0   0   0   0  0  0
162  0  1   0   0   0  0  0
163  1  0   0   0   0  0  0
164  0  0   3   1   0  0  0
165  0  2   0   0   0  0  0
166  2  0   0   0   0  0  0
167  0  0   4   2   0  1  0
168  3  0   0   0   0  0  0
169  0  1   0   0   0  0  0
170  1  0   0   0   0  0  0
171  0  0   3   1   0  0  0
172  0  2   0   0   0  0  0
173  2  0   0   0   0  0  0
174  0  0   4   2   0  1  0
175  3  0   0   0   0  0  0
176  0  1   0   0   0  0  0
177  1  0   0   0   0  0  0
178  0  0   3   1   0  0  0
179  0  2   0   0   0  0  0
180  2  0   0   0   0  0  0
181  0  0   4   2   0  1  0
182  3  0   0   0   0  0  0
183  0  1   0   0   0  0  0
184  1  0   0   0   0  0  0
185  0  0   3   1   0  0  0
186  0  2   0   0   0  0  0
187  2  0   0   0   0  0  0
188  0  0   4   2   0  1  0
189  3  0   0   0   0  0  0
190  0  1   0   0   0  0  0
191  1  0   0   0   0  0  0
192  0  0   3   1   0  0  0
193  0  2   0   0   0  0  0
194  2  0   0   0   0  0  0
195  0  0   4   2   0  1  0
196  3  0   0   0   0  0  0
197  0  1   0   0   0  0  0
198  1  0   0   0   0  0  0
199  0  0   3   1   0  0  0
200  0  2   0   0   0  0  0
201  2  0   0   0   0  0  0
202  0  0   4   2   0  1  0
203  3  0   0   0   0  0  0
204  0  1   0   0   0  0  0
205  1  0   0   0   0  0  0
206  0  0   3   1   0  0  0
207  0  2   0   0   0  0  0
208  2  0   0   0   0  0  0
209  0  0   4   2   0  1  0
210  3  0   0   0   0  0  0
211  0  1   0   0   0  0  0
212  1  0   0   0   0  0  0
213  0  0   3   1   0  0  0
214  0  2   0   0   0  0  0
215  2  0   0   0   0  0  0
216  0  0   4   2   0  1  0
217  3  0   0   0   0  0  0
218  0  1   0   0   0  0  0
219  1  0   0   0   0  0  0
220  0  0   3   1   0  0  0
221  0  2   0   0   0  0  0
222  2  0   0   0   0  0  0
223  0  0   4   2   0  1  0
224  3  0   0   0   0  0  0
225  0  1   0   0   0  0  0
226  1  0   0   0   0  0  0
227  0  0   3   1   0  0  0
228  0  2   0   0   0  0  0
229  2  0   0   0   0  0  0
230  0  0   4   2   0  1  0
231  3  0   0   0   0  0  0
232  0  1   0   0   0  0  0
233  1  0   0   0   0  0  0
234  0  0   3   1   0  0  0
235  0  2   0   0   0  0  0
236  2  0   0   0   0  0  0
237  0  0   4   2   0  1  0
238  3  0   0   0   0  0  0
239  0  1   0   0   0  0  0
240  1  0   0   0   0  0  0
241  0  0   3   1   0  0  0
242  0  2   0   0   0  0  0
243  2  0   0   0   0  0  0
244  0  0   4   2   0  1  0
245  3  0   0   0   0  0  0
246  0  1   0   0   0  0  0
247  1  0   0   0   0  0  0
248  0  0   3   1   0  0  0
249  0  2   0   0   0  0  0
250  2  0   0   0   0  0  0
251  0  0   4   2   0  1  0
252  3  0   0   0   0  0  0
253  0  1   0   0   0  0  0
254  1  0   0   0   0  0  0
255  0  0   3   1   0  0  0
256  0  2   0   0   0  0  0
257  2  0   0   0   0  0  0
258  0  0   4   2   0  1  0
259  3  0   0   0   0  0  0
260  0  1   0   0   0  0  0
261  1  0   0   0   0  0  0
262  0  0   3   1   0  0  0
263  0  2   0   0   0  0  0
264  2  0   0   0   0  0  0
265  0  0   4   2   0  1  0
266  3  0   0   0   0  0  0
267  0  1   0   0   0  0  0
268  1  0   0   0   0  0  0
269  0  0   3   1   0  0  0
270  0  2   0   0   0  0  0
271  2  0   0   0   0  0  0
272  0  0   4   2   0  1  0
273  3  0   0   0   0  0  0
274  0  1   0   0   0  0  0
275  1  0   0   0   0  0  0
276  0  0   3   1   0  0  0
277  0  2   0   0   0  0  0
278  2  0   0   0   0  0  0
279  0  0   4   2   0  1  0
280  3  0   0   0   0  0  0
281  0  1   0   0   0  0  0
282  1  0   0   0   0  0  0
283  0  0   3   1   0  0  0
284  0  2   0   0   0  0  0
285  2  0   0   0   0  0  0
286  0  0   4   2   0  1  0
287  3  0   0   0   0  0  0
288  0  1   0   0   0  0  0
289  1  0   0   0   0  0  0
290  0  0   3   1   0  0  0
291  0  2   0   0   0  0  0
292  2  0   0   0   0  0  0
293  0  0   4   2   0  1  0
294  3  0   0   0   0  0  0
295  0  1   0   0   0  0  0
296  1  0   0   0   0  0  0
297  0  0   3   1   0  0  0
298  0  2   0   0   0  0  0
299  2  0   0   0   0  0  0
300  0  0   4   2   0  1  0
301  3  0   0   0   0  0  0
302  0  1   0   0   0  0  0
303  1  0   0   0   0  0  0
304  0  0   3   3   0  0  0
305  0  2   0   0   0  0  0
306  2  0   0   0   0  0  0
307  0  0   4   4   0  1  0
308  3  0   0   0   0  0  0
309  0  1   0   0   0  0  0
310  1  0   0   0   0  0  0
311  0  0   3   3   0  0  0
312  0  2   0   0   0  0  0
313  2  0   0   0   0  0  0
314  0  0   4   4   0  1  0
315  3  0   0   0   0  0  0
316  0  1   0   0   0  0  0
317  1  0   0   0   0  0  0
318  0  0   3   3   0  0  0
319  0  2   0   0   0  0  0
320  2  0   0   0   0  0  0
321  0  0   4   4   0  1  0
322  3  0   0   0   0  0  0
323  0  1   0   0   0  0  0
324  1  0   0   0   0  0  0
325  0  0   3   3   0  0  0
326  0  2   0   0   0  0  0
327  2  0   0   0   0  0  0
328  0  0   4   4   0  1  0
329  3  0   0   0   0  0  0
330  0  1   0   0   0  0  0
331  1  0   0   0   0  0  0
332  0  0   3   3   0  0  0
333  0  2   0   0   0  0  0
334  2  0   0   0   0  0  0
335  0  0   4   4   0  1  0
336  3  0   0   0   0  0  0
337  0  1   0   0   0  0  0
338  1  0   0   0   0  0  0
339  0  0   3   3   0  0  0
340  0  2   0   0   0  0  0
341  2  0   0   0   0  0  0
342  0  0   4   4   0  1  0
343  3  0   0   0   0  0  0
344  0  1   0   0   0  0  0
345  1  0   0   0   0  0  0
346  0  0   3   3   0  0  0
347  0  2   0   0   0  0  0
348  2  0   0   0   0  0  0
349  0  0   4   4   0  1  0
350  3  0   0   0   0  0  0
351  0  1   0   0   0  0  0
352  1  0   0   0   0  0  0
353  0  0   3   3   0  0  0
354  0  2   0   0   0  0  0
355  2  0   0   0   0  0  0
356  0  0   4   4   0  1  0
357  3  0   0   0   0  0  0
358  0  1   0   0   0  0  0
359  1  0   0   0   0  0  0
360  0  0   3   3   0  0  0
361  0  2   0   0   0  0  0
362  2  0   0   0   0  0  0
363  0  0   4   4   0  1  0
364  3  0   0   0   0  0  0
365  0  1   0   0   0  0  0
366  1  0   0   0   0  0  0
367  0  0   3   3   0  0  0
368  0  2   0   0   0  0  0
369  2  0   0   0   0  0  0
370  0  0   4   4   0  1  0
371  3  0   0   0   0  0  0
372  0  1   0   0   0  0  0
373  1  0   0   0   0  0  0
374  0  0   3   3   0  0  0
375  0  2   0   0   0  0  0
376  2  0   0   0   0  0  0
377  0  0   4   4   0  1  0
378  3  0   0   0   0  0  0
379  0  1   0   0   0  0  0
380  1  0   0   0   0  0  0
381  0  0   3   3   0  0  0
382  0  2   0   0   0  0  0
383  2  0   0   0   0  0  0
384  0  0   4   4   0  1  0
385  3  0   0   0   0  0  0
386  0  1   0   0   0  0  0
387  1  0   0   0   0  0  0
388  0  0   3   3   0  0  0
389  0  2   0   0   0  0  0
390  2  0   0   0   0  0  0
391  0  0   4   4   0  1  0
392  3  0   0   0   0  0  0
393  0  1   0   0   0  0  0
394  1  0   0   0   0  0  0
395  0  0   3   3   0  0  0
396  0  2   0   0   0  0  0
397  2  0   0   0   0  0  0
398  0  0   4   4   0  1  0
399  3  0   0   0   0  0  0
400  0  1   0   0   0  0  0
401  1  0   0   0   0  0  0
402  0  0   3   3   0  0  0
403  0  2   0   0   0  0  0
404  2  0   0   0   0  0  0
405  0  0   4   4   0  1  0
406  3  0   0   0   0  0  0
407  0  1   0   0   0  0  0
408  1  0   0   0   0  0  0
409  0  0   3   3   0  0  0
410  0  2   0   0   0  0  0
411  2  0   0   0   0  0  0
412  0  0   4   4   0  1  0
413  3  0   0   0   0  0  0
414  0  1   0   0   0  0  0
415  1  0   0   0   0  0  0
416  0  0   3   3   0  0  0
417  0  2   0   0   0  0  0
418  2  0   0   0   0  0  0
419  0  0   4   4   0  1  0
420  3  0   0   0   0  0  0
421  0  1   0   0   0  0  0
422  1  0   0   0   0  0  0
423  0  0   3   3   0  0  0
424  0  2   0   0   0  0  0
425  2  0   0   0   0  0  0
426  0  0   4   4   0  1  0
427  3  0   0   0   0  0  0
428  0  1   0   0   0  0  0
429  1  0   0   0   0  0  0
430  0  0   3   3   0  0  0
431  0  2   0   0   0  0  0
432  2  0   0   0   0  0  0
433  0  0   4   4   0  1  0
434  3  0   0   0   0  0  0
435  0  1   0   0   0  0  0
436  1  0   0   0   0  0  0
437  0  0   3   3   0  0  0
438  0  2   0   0   0  0  0
439  2  0   0   0   0  0  0
440  0  0   4   4   0  1  0
441  3  0   0   0   0  0  0
442  0  1   0   0   0  0  0
443  1  0   0   0   0  0  0
444  0  0   3   3   0  0  0
445  0  2   0   0   0  0  0
446  2  0   0   0   0  0  0
447  0  0   4   4   0  1  0
448  3  0   0   0   0  0  0
449  0  1   0   0   0  0  0
450  1  0   0   0   0  0  0
451  0  0   3   3   0  0  0
452  0  2   0   0   0  0  0
453  2  0   0   0   0  0  0
454  0  0   4   4   0  1  0
455  3  0   0   0   0  0  0
456  0  1   0   0   0  0  0
457  1  0   0   0   0  0  0
458  0  0   3   3   0  0  0
459  0  2   0   0   0  0  0
460  2  0   0   0   0  0  0
461  0  0   4   4   0  1  0
462  3  0   0   0   0  0  0
463  0  1   0   0   0  0  0
464  1  0   0   0   0  0  0
465  0  0   3   3   0  0  0
466  0  2   0   0   0  0  0
467  2  0   0   0   0  0  0
468  0  0   4   4   0  1  0
469  3  0   0   0   0  0  0
470  0  1   0   0   0  0  0
471  1  0   0   0   0  0  0
472  0  0   3   3   0  0  0
473  0  2   0   0   0  0  0
474  2  0   0   0   0  0  0
475  0  0   4   4   0  1  0
476  3  0   0   0   0  0  0
477  0  1   0   0   0  0  0
478  1  0   0   0   0  0  0
479  0  0   3   3   0  0  0
480  0  2   0   0   0  0  0
481  2  0   0   0   0  0  0
482  0  0   4   4   0  1  0
483  3  0   0   0   0  0  0
484  0  1   0   0   0  0  0
485  1  0   0   0   0  0  0
486  0  0   3   3   0  0  0
487  0  2   0   0   0  0  0
488  2  0   0   0   0  0  0
489  0  0   4   4   0  1  0
490  3  0   0   0   0  0  0
491  0  1   0   0   0  0  0
492  1  0   0   0   0  0  0
493  0  0   3   3   0  0  0
494  0  2   0   0   0  0  0
495  2  0   0   0   0  0  0
496  0  0   4   4   0  1  0
497  3  0   0   0   0  0  0
498  0  1   0   0   0  0  0
499  1  0   0   0   0  0  0
500  0  0   3   3   0  0  0
501  0  2   0   0   0  0  0
502  2  0   0   0   0  0  0
503  0  0   4   4   0  1  0
504  3  0   0   0   0  0  0
505  0  1   0   0   0  0  0
506  1  0   0   0   0  0  0
507  0  0   3   3   0  0  0
508  0  2   0   0   0  0  0
509  2  0   0   0   0  0  0
510  0  0   4   4   0  1  0
511  3  0   0   0   0  0  0
512  0  1   0   0   0  0  0
513  1  0   0   0   0  0  0
514  0  0   3   3   0  0  0
515  0  2   0   0   0  0  0
516  2  0   0   0   0  0  0
517  0  0   4   4   0  1  0
518  3  0   0   0   0  0  0
519  0  1   0   0   0  0  0
520  1  0   0   0   0  0  0
521  0  0   3   3   0  0  0
522  0  2   0   0   0  0  0
523  2  0   0   0   0  0  0
524  0  0   4   4   0  1  0
525  3  0   0   0   0  0  0
526  0  1   0   0   0  0  0
527  1  0   0   0   0  0  0
528  0  0   3   3   0  0  0
529  0  2   0   0   0  0  0
530  2  0   0   0   0  0  0
531  0  0   4   4   0  1  0
532  3  0   0   0   0  0  0
533  0  1   0   0   0  0  0
534  1  0   0   0   0  0  0
535  0  0   3   3   0  0  0
536  0  2   0   0   0  0  0
537  2  0   0   0   0  0  0
538  0  0   4   4   0  1  0
539  3  0   0   0   0  0  0
540  0  1   0   0   0  0  0
541  1  0   0   0   0  0  0
542  0  0   3   3   0  0  0
543  0  2   0   0   0  0  0
544  2  0   0   0   0  0  0
545  0  0   4   4   0  1  0
546  3  0   0   0   0  0  0
547  0  1   0   0   0  0  0
548  1  0   0   0   0  0  0
549  0  0   3   3   0  0  0
550  0  2   0   0   0  0  0
551  2  0   0   0   0  0  0
552  0  0   4   4   0  1  0
553  3  0   0   0   0  0  0
554  0  1   0   0   0  0  0
555  1  0   0   0   0  0  0
556  0  0   3   3   0  0  0
557  0  2   0   0   0  0  0
558  2  0   0   0   0  0  0
559  0  0   4   4   0  1  0
560  3  0   0   0   0  0  0
561  0  1   0   0   0  0  0
562  1  0   0   0   0  0  0
563  0  0   3   3   0  0  0
564  0  2   0   0   0  0  0
565  2  0   0   0   0  0  0
566  0  0   4   4   0  1  0
567  3  0   0   0   0  0  0
568  0  1   0   0   0  0  0
569  1  0   0   0   0  0  0
570  0  0   3   3   0  0  0
571  0  2   0   0   0  0  0
572  2  0   0   0   0  0  0
573  0  0   4   4   0  1  0
574  3  0   0   0   0  0  0

# Format of RF events:
# id amplitude mag_id phase_id delay freq phase
# ..        Hz   ....     ....    us   Hz   rad
[RF]
1         2500 1 2 500 0 0
2         2500 3 4 500 0 1.5708

# Format of trapezoid gradients:
# id amplitude rise flat fall delay
# ..      Hz/m   us   us   us    us
[TRAP]
 1            0  10 1980  10   0
 2            0   0 4000   0   0
 3           -0  10 1980  10   0
 4           -0   0 4000   0   0

# Format of ADC events:
# id num dwell delay freq phase
# ..  ..    ns    us   Hz   rad
[ADC]
1 800 5000 0 0 0

# Format of delays:
# id delay (us)
[DELAYS]
1 3350
2 3900
3 4985200

# Sequence Shapes
[SHAPES]

shape_id 1
num_samples 100
1
0
0
97

shape_id 2
num_samples 100
0
0
98

shape_id 3
num_samples 200
1
0
0
197

shape_id 4
num_samples 200
0
0
198

