# Pulseq sequence file
# Created by MATLAB mr toolbox

[VERSION]
major 1
minor 3
revision 1

[DEFINITIONS]
Bandwidth [Hz] 266666.667 
FOV 0.01 0.01 
Name se_2d 
Nspokes 80 
Nx 200 
SliceThickness 0 
TE [s] 0.012 
TR 5 
angle 360 
grad_interval 1e-05 
rf_interval 1e-06 

# Format of blocks:
#  #  D RF  GX  GY  GZ ADC EXT
[BLOCKS]
  1  0  1   0   0   0  0  0
  2  1  0   0   0   0  0  0
  3  0  0   1   2   0  0  0
  4  2  0   0   0   0  0  0
  5  0  2   0   0   0  0  0
  6  3  0   0   0   0  0  0
  7  0  0   3   4   0  0  0
  8  4  0   0   0   0  0  0
  9  0  1   0   0   0  0  0
 10  1  0   0   0   0  0  0
 11  0  0   5   6   0  0  0
 12  2  0   0   0   0  0  0
 13  0  2   0   0   0  0  0
 14  3  0   0   0   0  0  0
 15  0  0   7   8   0  0  0
 16  4  0   0   0   0  0  0
 17  0  1   0   0   0  0  0
 18  1  0   0   0   0  0  0
 19  0  0   0   9   0  0  0
 20  2  0   0   0   0  0  0
 21  0  2   0   0   0  0  0
 22  3  0   0   0   0  0  0
 23  0  0   0  10   0  1  0
 24  4  0   0   0   0  0  0
 25  0  1   0   0   0  0  0
 26  1  0   0   0   0  0  0
 27  0  0  11   6   0  0  0
 28  2  0   0   0   0  0  0
 29  0  2   0   0   0  0  0
 30  3  0   0   0   0  0  0
 31  0  0  12   8   0  1  0
 32  4  0   0   0   0  0  0
 33  0  1   0   0   0  0  0
 34  1  0   0   0   0  0  0
 35  0  0  13   2   0  0  0
 36  2  0   0   0   0  0  0
 37  0  2   0   0   0  0  0
 38  3  0   0   0   0  0  0
 39  0  0  14   4   0  1  0
 40  4  0   0   0   0  0  0
 41  0  1   0   0   0  0  0
 42  1  0   0   0   0  0  0
 43  0  0  15  16   0  0  0
 44  2  0   0   0   0  0  0
 45  0  2   0   0   0  0  0
 46  3  0   0   0   0  0  0
 47  0  0  17  18   0  1  0
 48  4  0   0   0   0  0  0
 49  0  1   0   0   0  0  0
 50  1  0   0   0   0  0  0
 51  0  0  19  20   0  0  0
 52  2  0   0   0   0  0  0
 53  0  2   0   0   0  0  0
 54  3  0   0   0   0  0  0
 55  0  0  21  22   0  1  0
 56  4  0   0   0   0  0  0
 57  0  1   0   0   0  0  0
 58  1  0   0   0   0  0  0
 59  0  0  23  24   0  0  0
 60  2  0   0   0   0  0  0
 61  0  2   0   0   0  0  0
 62  3  0   0   0   0  0  0
 63  0  0  25  26   0  1  0
 64  4  0   0   0   0  0  0
 65  0  1   0   0   0  0  0
 66  1  0   0   0   0  0  0
 67  0  0  27  28   0  0  0
 68  2  0   0   0   0  0  0
 69  0  2   0   0   0  0  0
 70  3  0   0   0   0  0  0
 71  0  0  29  30   0  1  0
 72  4  0   0   0   0  0  0
 73  0  1   0   0   0  0  0
 74  1  0   0   0   0  0  0
 75  0  0  31  32   0  0  0
 76  2  0   0   0   0  0  0
 77  0  2   0   0   0  0  0
 78  3  0   0   0   0  0  0
 79  0  0  33  34   0  1  0
 80  4  0   0   0   0  0  0
 81  0  1   0   0   0  0  0
 82  1  0   0   0   0  0  0
 83  0  0  35  36   0  0  0
 84  2  0   0   0   0  0  0
 85  0  2   0   0   0  0  0
 86  3  0   0   0   0  0  0
 87  0  0  37  38   0  1  0
 88  4  0   0   0   0  0  0
 89  0  1   0   0   0  0  0
 90  1  0   0   0   0  0  0
 91  0  0  39  40   0  0  0
 92  2  0   0   0   0  0  0
 93  0  2   0   0   0  0  0
 94  3  0   0   0   0  0  0
 95  0  0  41  42   0  1  0
 96  4  0   0   0   0  0  0
 97  0  1   0   0   0  0  0
 98  1  0   0   0   0  0  0
 99  0  0  43  44   0  0  0
100  2  0   0   0   0  0  0
101  0  2   0   0   0  0  0
102  3  0   0   0   0  0  0
103  0  0  45  46   0  1  0
104  4  0   0   0   0  0  0
105  0  1   0   0   0  0  0
106  1  0   0   0   0  0  0
107  0  0  47  48   0  0  0
108  2  0   0   0   0  0  0
109  0  2   0   0   0  0  0
110  3  0   0   0   0  0  0
111  0  0  49  50   0  1  0
112  4  0   0   0   0  0  0
113  0  1   0   0   0  0  0
114  1  0   0   0   0  0  0
115  0  0  51  52   0  0  0
116  2  0   0   0   0  0  0
117  0  2   0   0   0  0  0
118  3  0   0   0   0  0  0
119  0  0  53  54   0  1  0
120  4  0   0   0   0  0  0
121  0  1   0   0   0  0  0
122  1  0   0   0   0  0  0
123  0  0  55  56   0  0  0
124  2  0   0   0   0  0  0
125  0  2   0   0   0  0  0
126  3  0   0   0   0  0  0
127  0  0  57  58   0  1  0
128  4  0   0   0   0  0  0
129  0  1   0   0   0  0  0
130  1  0   0   0   0  0  0
131  0  0  59  60   0  0  0
132  2  0   0   0   0  0  0
133  0  2   0   0   0  0  0
134  3  0   0   0   0  0  0
135  0  0  61  62   0  1  0
136  4  0   0   0   0  0  0
137  0  1   0   0   0  0  0
138  1  0   0   0   0  0  0
139  0  0  63  64   0  0  0
140  2  0   0   0   0  0  0
141  0  2   0   0   0  0  0
142  3  0   0   0   0  0  0
143  0  0  65  66   0  1  0
144  4  0   0   0   0  0  0
145  0  1   0   0   0  0  0
146  1  0   0   0   0  0  0
147  0  0  67  68   0  0  0
148  2  0   0   0   0  0  0
149  0  2   0   0   0  0  0
150  3  0   0   0   0  0  0
151  0  0  69  70   0  1  0
152  4  0   0   0   0  0  0
153  0  1   0   0   0  0  0
154  1  0   0   0   0  0  0
155  0  0  71  72   0  0  0
156  2  0   0   0   0  0  0
157  0  2   0   0   0  0  0
158  3  0   0   0   0  0  0
159  0  0  73  74   0  1  0
160  4  0   0   0   0  0  0
161  0  1   0   0   0  0  0
162  1  0   0   0   0  0  0
163  0  0  75   1   0  0  0
164  2  0   0   0   0  0  0
165  0  2   0   0   0  0  0
166  3  0   0   0   0  0  0
167  0  0  76   3   0  1  0
168  4  0   0   0   0  0  0
169  0  1   0   0   0  0  0
170  1  0   0   0   0  0  0
171  0  0  77   5   0  0  0
172  2  0   0   0   0  0  0
173  0  2   0   0   0  0  0
174  3  0   0   0   0  0  0
175  0  0  78   7   0  1  0
176  4  0   0   0   0  0  0
177  0  1   0   0   0  0  0
178  1  0   0   0   0  0  0
179  0  0  79   0   0  0  0
180  2  0   0   0   0  0  0
181  0  2   0   0   0  0  0
182  3  0   0   0   0  0  0
183  0  0  80   0   0  1  0
184  4  0   0   0   0  0  0
185  0  1   0   0   0  0  0
186  1  0   0   0   0  0  0
187  0  0  77  11   0  0  0
188  2  0   0   0   0  0  0
189  0  2   0   0   0  0  0
190  3  0   0   0   0  0  0
191  0  0  78  12   0  1  0
192  4  0   0   0   0  0  0
193  0  1   0   0   0  0  0
194  1  0   0   0   0  0  0
195  0  0  75  13   0  0  0
196  2  0   0   0   0  0  0
197  0  2   0   0   0  0  0
198  3  0   0   0   0  0  0
199  0  0  76  14   0  1  0
200  4  0   0   0   0  0  0
201  0  1   0   0   0  0  0
202  1  0   0   0   0  0  0
203  0  0  71  15   0  0  0
204  2  0   0   0   0  0  0
205  0  2   0   0   0  0  0
206  3  0   0   0   0  0  0
207  0  0  73  17   0  1  0
208  4  0   0   0   0  0  0
209  0  1   0   0   0  0  0
210  1  0   0   0   0  0  0
211  0  0  67  19   0  0  0
212  2  0   0   0   0  0  0
213  0  2   0   0   0  0  0
214  3  0   0   0   0  0  0
215  0  0  69  21   0  1  0
216  4  0   0   0   0  0  0
217  0  1   0   0   0  0  0
218  1  0   0   0   0  0  0
219  0  0  63  23   0  0  0
220  2  0   0   0   0  0  0
221  0  2   0   0   0  0  0
222  3  0   0   0   0  0  0
223  0  0  65  25   0  1  0
224  4  0   0   0   0  0  0
225  0  1   0   0   0  0  0
226  1  0   0   0   0  0  0
227  0  0  59  27   0  0  0
228  2  0   0   0   0  0  0
229  0  2   0   0   0  0  0
230  3  0   0   0   0  0  0
231  0  0  61  29   0  1  0
232  4  0   0   0   0  0  0
233  0  1   0   0   0  0  0
234  1  0   0   0   0  0  0
235  0  0  55  31   0  0  0
236  2  0   0   0   0  0  0
237  0  2   0   0   0  0  0
238  3  0   0   0   0  0  0
239  0  0  57  33   0  1  0
240  4  0   0   0   0  0  0
241  0  1   0   0   0  0  0
242  1  0   0   0   0  0  0
243  0  0  51  35   0  0  0
244  2  0   0   0   0  0  0
245  0  2   0   0   0  0  0
246  3  0   0   0   0  0  0
247  0  0  53  37   0  1  0
248  4  0   0   0   0  0  0
249  0  1   0   0   0  0  0
250  1  0   0   0   0  0  0
251  0  0  47  39   0  0  0
252  2  0   0   0   0  0  0
253  0  2   0   0   0  0  0
254  3  0   0   0   0  0  0
255  0  0  49  41   0  1  0
256  4  0   0   0   0  0  0
257  0  1   0   0   0  0  0
258  1  0   0   0   0  0  0
259  0  0  43  43   0  0  0
260  2  0   0   0   0  0  0
261  0  2   0   0   0  0  0
262  3  0   0   0   0  0  0
263  0  0  45  45   0  1  0
264  4  0   0   0   0  0  0
265  0  1   0   0   0  0  0
266  1  0   0   0   0  0  0
267  0  0  39  47   0  0  0
268  2  0   0   0   0  0  0
269  0  2   0   0   0  0  0
270  3  0   0   0   0  0  0
271  0  0  41  49   0  1  0
272  4  0   0   0   0  0  0
273  0  1   0   0   0  0  0
274  1  0   0   0   0  0  0
275  0  0  35  51   0  0  0
276  2  0   0   0   0  0  0
277  0  2   0   0   0  0  0
278  3  0   0   0   0  0  0
279  0  0  37  53   0  1  0
280  4  0   0   0   0  0  0
281  0  1   0   0   0  0  0
282  1  0   0   0   0  0  0
283  0  0  31  55   0  0  0
284  2  0   0   0   0  0  0
285  0  2   0   0   0  0  0
286  3  0   0   0   0  0  0
287  0  0  33  57   0  1  0
288  4  0   0   0   0  0  0
289  0  1   0   0   0  0  0
290  1  0   0   0   0  0  0
291  0  0  27  59   0  0  0
292  2  0   0   0   0  0  0
293  0  2   0   0   0  0  0
294  3  0   0   0   0  0  0
295  0  0  29  61   0  1  0
296  4  0   0   0   0  0  0
297  0  1   0   0   0  0  0
298  1  0   0   0   0  0  0
299  0  0  23  63   0  0  0
300  2  0   0   0   0  0  0
301  0  2   0   0   0  0  0
302  3  0   0   0   0  0  0
303  0  0  25  65   0  1  0
304  4  0   0   0   0  0  0
305  0  1   0   0   0  0  0
306  1  0   0   0   0  0  0
307  0  0  19  67   0  0  0
308  2  0   0   0   0  0  0
309  0  2   0   0   0  0  0
310  3  0   0   0   0  0  0
311  0  0  21  69   0  1  0
312  4  0   0   0   0  0  0
313  0  1   0   0   0  0  0
314  1  0   0   0   0  0  0
315  0  0  15  71   0  0  0
316  2  0   0   0   0  0  0
317  0  2   0   0   0  0  0
318  3  0   0   0   0  0  0
319  0  0  17  73   0  1  0
320  4  0   0   0   0  0  0
321  0  1   0   0   0  0  0
322  1  0   0   0   0  0  0
323  0  0  13  75   0  0  0
324  2  0   0   0   0  0  0
325  0  2   0   0   0  0  0
326  3  0   0   0   0  0  0
327  0  0  14  76   0  1  0
328  4  0   0   0   0  0  0
329  0  1   0   0   0  0  0
330  1  0   0   0   0  0  0
331  0  0  11  77   0  0  0
332  2  0   0   0   0  0  0
333  0  2   0   0   0  0  0
334  3  0   0   0   0  0  0
335  0  0  12  78   0  1  0
336  4  0   0   0   0  0  0
337  0  1   0   0   0  0  0
338  1  0   0   0   0  0  0
339  0  0   0  79   0  0  0
340  2  0   0   0   0  0  0
341  0  2   0   0   0  0  0
342  3  0   0   0   0  0  0
343  0  0   0  80   0  1  0
344  4  0   0   0   0  0  0
345  0  1   0   0   0  0  0
346  1  0   0   0   0  0  0
347  0  0   5  77   0  0  0
348  2  0   0   0   0  0  0
349  0  2   0   0   0  0  0
350  3  0   0   0   0  0  0
351  0  0   7  78   0  1  0
352  4  0   0   0   0  0  0
353  0  1   0   0   0  0  0
354  1  0   0   0   0  0  0
355  0  0   1  75   0  0  0
356  2  0   0   0   0  0  0
357  0  2   0   0   0  0  0
358  3  0   0   0   0  0  0
359  0  0   3  76   0  1  0
360  4  0   0   0   0  0  0
361  0  1   0   0   0  0  0
362  1  0   0   0   0  0  0
363  0  0  72  71   0  0  0
364  2  0   0   0   0  0  0
365  0  2   0   0   0  0  0
366  3  0   0   0   0  0  0
367  0  0  74  73   0  1  0
368  4  0   0   0   0  0  0
369  0  1   0   0   0  0  0
370  1  0   0   0   0  0  0
371  0  0  68  67   0  0  0
372  2  0   0   0   0  0  0
373  0  2   0   0   0  0  0
374  3  0   0   0   0  0  0
375  0  0  70  69   0  1  0
376  4  0   0   0   0  0  0
377  0  1   0   0   0  0  0
378  1  0   0   0   0  0  0
379  0  0  64  63   0  0  0
380  2  0   0   0   0  0  0
381  0  2   0   0   0  0  0
382  3  0   0   0   0  0  0
383  0  0  66  65   0  1  0
384  4  0   0   0   0  0  0
385  0  1   0   0   0  0  0
386  1  0   0   0   0  0  0
387  0  0  60  59   0  0  0
388  2  0   0   0   0  0  0
389  0  2   0   0   0  0  0
390  3  0   0   0   0  0  0
391  0  0  62  61   0  1  0
392  4  0   0   0   0  0  0
393  0  1   0   0   0  0  0
394  1  0   0   0   0  0  0
395  0  0  56  55   0  0  0
396  2  0   0   0   0  0  0
397  0  2   0   0   0  0  0
398  3  0   0   0   0  0  0
399  0  0  58  57   0  1  0
400  4  0   0   0   0  0  0
401  0  1   0   0   0  0  0
402  1  0   0   0   0  0  0
403  0  0  52  51   0  0  0
404  2  0   0   0   0  0  0
405  0  2   0   0   0  0  0
406  3  0   0   0   0  0  0
407  0  0  54  53   0  1  0
408  4  0   0   0   0  0  0
409  0  1   0   0   0  0  0
410  1  0   0   0   0  0  0
411  0  0  48  47   0  0  0
412  2  0   0   0   0  0  0
413  0  2   0   0   0  0  0
414  3  0   0   0   0  0  0
415  0  0  50  49   0  1  0
416  4  0   0   0   0  0  0
417  0  1   0   0   0  0  0
418  1  0   0   0   0  0  0
419  0  0  44  43   0  0  0
420  2  0   0   0   0  0  0
421  0  2   0   0   0  0  0
422  3  0   0   0   0  0  0
423  0  0  46  45   0  1  0
424  4  0   0   0   0  0  0
425  0  1   0   0   0  0  0
426  1  0   0   0   0  0  0
427  0  0  40  39   0  0  0
428  2  0   0   0   0  0  0
429  0  2   0   0   0  0  0
430  3  0   0   0   0  0  0
431  0  0  42  41   0  1  0
432  4  0   0   0   0  0  0
433  0  1   0   0   0  0  0
434  1  0   0   0   0  0  0
435  0  0  36  35   0  0  0
436  2  0   0   0   0  0  0
437  0  2   0   0   0  0  0
438  3  0   0   0   0  0  0
439  0  0  38  37   0  1  0
440  4  0   0   0   0  0  0
441  0  1   0   0   0  0  0
442  1  0   0   0   0  0  0
443  0  0  32  31   0  0  0
444  2  0   0   0   0  0  0
445  0  2   0   0   0  0  0
446  3  0   0   0   0  0  0
447  0  0  34  33   0  1  0
448  4  0   0   0   0  0  0
449  0  1   0   0   0  0  0
450  1  0   0   0   0  0  0
451  0  0  28  27   0  0  0
452  2  0   0   0   0  0  0
453  0  2   0   0   0  0  0
454  3  0   0   0   0  0  0
455  0  0  30  29   0  1  0
456  4  0   0   0   0  0  0
457  0  1   0   0   0  0  0
458  1  0   0   0   0  0  0
459  0  0  24  23   0  0  0
460  2  0   0   0   0  0  0
461  0  2   0   0   0  0  0
462  3  0   0   0   0  0  0
463  0  0  26  25   0  1  0
464  4  0   0   0   0  0  0
465  0  1   0   0   0  0  0
466  1  0   0   0   0  0  0
467  0  0  20  19   0  0  0
468  2  0   0   0   0  0  0
469  0  2   0   0   0  0  0
470  3  0   0   0   0  0  0
471  0  0  22  21   0  1  0
472  4  0   0   0   0  0  0
473  0  1   0   0   0  0  0
474  1  0   0   0   0  0  0
475  0  0  16  15   0  0  0
476  2  0   0   0   0  0  0
477  0  2   0   0   0  0  0
478  3  0   0   0   0  0  0
479  0  0  18  17   0  1  0
480  4  0   0   0   0  0  0
481  0  1   0   0   0  0  0
482  1  0   0   0   0  0  0
483  0  0   2  13   0  0  0
484  2  0   0   0   0  0  0
485  0  2   0   0   0  0  0
486  3  0   0   0   0  0  0
487  0  0   4  14   0  1  0
488  4  0   0   0   0  0  0
489  0  1   0   0   0  0  0
490  1  0   0   0   0  0  0
491  0  0   6  11   0  0  0
492  2  0   0   0   0  0  0
493  0  2   0   0   0  0  0
494  3  0   0   0   0  0  0
495  0  0   8  12   0  1  0
496  4  0   0   0   0  0  0
497  0  1   0   0   0  0  0
498  1  0   0   0   0  0  0
499  0  0   9   0   0  0  0
500  2  0   0   0   0  0  0
501  0  2   0   0   0  0  0
502  3  0   0   0   0  0  0
503  0  0  10   0   0  1  0
504  4  0   0   0   0  0  0
505  0  1   0   0   0  0  0
506  1  0   0   0   0  0  0
507  0  0   6   5   0  0  0
508  2  0   0   0   0  0  0
509  0  2   0   0   0  0  0
510  3  0   0   0   0  0  0
511  0  0   8   7   0  1  0
512  4  0   0   0   0  0  0
513  0  1   0   0   0  0  0
514  1  0   0   0   0  0  0
515  0  0   2   1   0  0  0
516  2  0   0   0   0  0  0
517  0  2   0   0   0  0  0
518  3  0   0   0   0  0  0
519  0  0   4   3   0  1  0
520  4  0   0   0   0  0  0
521  0  1   0   0   0  0  0
522  1  0   0   0   0  0  0
523  0  0  16  72   0  0  0
524  2  0   0   0   0  0  0
525  0  2   0   0   0  0  0
526  3  0   0   0   0  0  0
527  0  0  18  74   0  1  0
528  4  0   0   0   0  0  0
529  0  1   0   0   0  0  0
530  1  0   0   0   0  0  0
531  0  0  20  68   0  0  0
532  2  0   0   0   0  0  0
533  0  2   0   0   0  0  0
534  3  0   0   0   0  0  0
535  0  0  22  70   0  1  0
536  4  0   0   0   0  0  0
537  0  1   0   0   0  0  0
538  1  0   0   0   0  0  0
539  0  0  24  64   0  0  0
540  2  0   0   0   0  0  0
541  0  2   0   0   0  0  0
542  3  0   0   0   0  0  0
543  0  0  26  66   0  1  0
544  4  0   0   0   0  0  0
545  0  1   0   0   0  0  0
546  1  0   0   0   0  0  0
547  0  0  28  60   0  0  0
548  2  0   0   0   0  0  0
549  0  2   0   0   0  0  0
550  3  0   0   0   0  0  0
551  0  0  30  62   0  1  0
552  4  0   0   0   0  0  0
553  0  1   0   0   0  0  0
554  1  0   0   0   0  0  0
555  0  0  32  56   0  0  0
556  2  0   0   0   0  0  0
557  0  2   0   0   0  0  0
558  3  0   0   0   0  0  0
559  0  0  34  58   0  1  0
560  4  0   0   0   0  0  0
561  0  1   0   0   0  0  0
562  1  0   0   0   0  0  0
563  0  0  36  52   0  0  0
564  2  0   0   0   0  0  0
565  0  2   0   0   0  0  0
566  3  0   0   0   0  0  0
567  0  0  38  54   0  1  0
568  4  0   0   0   0  0  0
569  0  1   0   0   0  0  0
570  1  0   0   0   0  0  0
571  0  0  40  48   0  0  0
572  2  0   0   0   0  0  0
573  0  2   0   0   0  0  0
574  3  0   0   0   0  0  0
575  0  0  42  50   0  1  0
576  4  0   0   0   0  0  0
577  0  1   0   0   0  0  0
578  1  0   0   0   0  0  0
579  0  0  44  44   0  0  0
580  2  0   0   0   0  0  0
581  0  2   0   0   0  0  0
582  3  0   0   0   0  0  0
583  0  0  46  46   0  1  0
584  4  0   0   0   0  0  0
585  0  1   0   0   0  0  0
586  1  0   0   0   0  0  0
587  0  0  48  40   0  0  0
588  2  0   0   0   0  0  0
589  0  2   0   0   0  0  0
590  3  0   0   0   0  0  0
591  0  0  50  42   0  1  0
592  4  0   0   0   0  0  0
593  0  1   0   0   0  0  0
594  1  0   0   0   0  0  0
595  0  0  52  36   0  0  0
596  2  0   0   0   0  0  0
597  0  2   0   0   0  0  0
598  3  0   0   0   0  0  0
599  0  0  54  38   0  1  0
600  4  0   0   0   0  0  0
601  0  1   0   0   0  0  0
602  1  0   0   0   0  0  0
603  0  0  56  32   0  0  0
604  2  0   0   0   0  0  0
605  0  2   0   0   0  0  0
606  3  0   0   0   0  0  0
607  0  0  58  34   0  1  0
608  4  0   0   0   0  0  0
609  0  1   0   0   0  0  0
610  1  0   0   0   0  0  0
611  0  0  60  28   0  0  0
612  2  0   0   0   0  0  0
613  0  2   0   0   0  0  0
614  3  0   0   0   0  0  0
615  0  0  62  30   0  1  0
616  4  0   0   0   0  0  0
617  0  1   0   0   0  0  0
618  1  0   0   0   0  0  0
619  0  0  64  24   0  0  0
620  2  0   0   0   0  0  0
621  0  2   0   0   0  0  0
622  3  0   0   0   0  0  0
623  0  0  66  26   0  1  0
624  4  0   0   0   0  0  0
625  0  1   0   0   0  0  0
626  1  0   0   0   0  0  0
627  0  0  68  20   0  0  0
628  2  0   0   0   0  0  0
629  0  2   0   0   0  0  0
630  3  0   0   0   0  0  0
631  0  0  70  22   0  1  0
632  4  0   0   0   0  0  0
633  0  1   0   0   0  0  0
634  1  0   0   0   0  0  0
635  0  0  72  16   0  0  0
636  2  0   0   0   0  0  0
637  0  2   0   0   0  0  0
638  3  0   0   0   0  0  0
639  0  0  74  18   0  1  0
640  4  0   0   0   0  0  0
641  0  1   0   0   0  0  0
642  1  0   0   0   0  0  0
643  0  0   1   2   0  0  0
644  2  0   0   0   0  0  0
645  0  2   0   0   0  0  0
646  3  0   0   0   0  0  0
647  0  0   3   4   0  1  0
648  4  0   0   0   0  0  0
649  0  1   0   0   0  0  0
650  1  0   0   0   0  0  0
651  0  0   5   6   0  0  0
652  2  0   0   0   0  0  0
653  0  2   0   0   0  0  0
654  3  0   0   0   0  0  0
655  0  0   7   8   0  1  0
656  4  0   0   0   0  0  0

# Format of RF events:
# id amplitude mag_id phase_id delay freq phase
# ..        Hz   ....     ....    us   Hz   rad
[RF]
1         2500 1 2 500 0 0
2         2500 3 4 500 0 1.5708

# Format of trapezoid gradients:
# id amplitude rise flat fall delay
# ..      Hz/m   us   us   us    us
[TRAP]
 1  1.82232e+06 550  400 550   0
 2  1.15057e+07 550  400 550   0
 3   1.0429e+06 320 3000 320   0
 4  6.58459e+06 320 3000 320   0
 5       913980 550  400 550   0
 6  1.16132e+07 550  400 550   0
 7       523061 320 3000 320   0
 8  6.64612e+06 320 3000 320   0
 9  1.16491e+07 550  400 550   0
10  6.66667e+06 320 3000 320   0
11      -913980 550  400 550   0
12      -523061 320 3000 320   0
13 -1.82232e+06 550  400 550   0
14  -1.0429e+06 320 3000 320   0
15 -2.71943e+06 550  400 550   0
16  1.13273e+07 550  400 550   0
17  -1.5563e+06 320 3000 320   0
18  6.48247e+06 320 3000 320   0
19 -3.59978e+06 550  400 550   0
20   1.1079e+07 550  400 550   0
21 -2.06011e+06 320 3000 320   0
22  6.34038e+06 320 3000 320   0
23 -4.45793e+06 550  400 550   0
24  1.07624e+07 550  400 550   0
25 -2.55122e+06 320 3000 320   0
26   6.1592e+06 320 3000 320   0
27 -5.28859e+06 550  400 550   0
28  1.03794e+07 550  400 550   0
29  -3.0266e+06 320 3000 320   0
30  5.94004e+06 320 3000 320   0
31 -6.08665e+06 550  400 550   0
32  9.93251e+06 550  400 550   0
33 -3.48332e+06 320 3000 320   0
34  5.68427e+06 320 3000 320   0
35 -6.84718e+06 550  400 550   0
36  9.42434e+06 550  400 550   0
37 -3.91857e+06 320 3000 320   0
38  5.39345e+06 320 3000 320   0
39  -7.5655e+06 550  400 550   0
40  8.85806e+06 550  400 550   0
41 -4.32965e+06 320 3000 320   0
42  5.06937e+06 320 3000 320   0
43 -8.23717e+06 550  400 550   0
44  8.23717e+06 550  400 550   0
45 -4.71405e+06 320 3000 320   0
46  4.71405e+06 320 3000 320   0
47 -8.85806e+06 550  400 550   0
48   7.5655e+06 550  400 550   0
49 -5.06937e+06 320 3000 320   0
50  4.32965e+06 320 3000 320   0
51 -9.42434e+06 550  400 550   0
52  6.84718e+06 550  400 550   0
53 -5.39345e+06 320 3000 320   0
54  3.91857e+06 320 3000 320   0
55 -9.93251e+06 550  400 550   0
56  6.08665e+06 550  400 550   0
57 -5.68427e+06 320 3000 320   0
58  3.48332e+06 320 3000 320   0
59 -1.03794e+07 550  400 550   0
60  5.28859e+06 550  400 550   0
61 -5.94004e+06 320 3000 320   0
62   3.0266e+06 320 3000 320   0
63 -1.07624e+07 550  400 550   0
64  4.45793e+06 550  400 550   0
65  -6.1592e+06 320 3000 320   0
66  2.55122e+06 320 3000 320   0
67  -1.1079e+07 550  400 550   0
68  3.59978e+06 550  400 550   0
69 -6.34038e+06 320 3000 320   0
70  2.06011e+06 320 3000 320   0
71 -1.13273e+07 550  400 550   0
72  2.71943e+06 550  400 550   0
73 -6.48247e+06 320 3000 320   0
74   1.5563e+06 320 3000 320   0
75 -1.15057e+07 550  400 550   0
76 -6.58459e+06 320 3000 320   0
77 -1.16132e+07 550  400 550   0
78 -6.64612e+06 320 3000 320   0
79 -1.16491e+07 550  400 550   0
80 -6.66667e+06 320 3000 320   0

# Format of ADC events:
# id num dwell delay freq phase
# ..  ..    ns    us   Hz   rad
[ADC]
1 800 3750 320 0 0

# Format of delays:
# id delay (us)
[DELAYS]
1 2850
2 1000
3 4080
4 4985380

# Sequence Shapes
[SHAPES]

shape_id 1
num_samples 100
1
0
0
97

shape_id 2
num_samples 100
0
0
98

shape_id 3
num_samples 200
1
0
0
197

shape_id 4
num_samples 200
0
0
198

