# Pulseq sequence file
# Created by MATLAB mr toolbox

[VERSION]
major 1
minor 3
revision 1

[DEFINITIONS]
Bandwidth [Hz] 266666.667 
ESP [s] 0.01 
ETL 16 
FOV 0.01 0.01 
Name tse_2d 
Ndummy 1 
Nx 200 
Ny 128 
SliceThickness 10 
TR 5 
grad_t 10 
tx_t 1 

# Format of blocks:
#  #  D RF  GX  GY  GZ ADC EXT
[BLOCKS]
   1  0  1   0   0   0  0  0
   2  1  0   0   0   0  0  0
   3  0  0   1   0   0  0  0
   4  0  0   2   0   0  0  0
   5  0  2   0   0   0  0  0
   6  0  0   2   0   0  0  0
   7  2  0   0   0   0  0  0
   8  0  0   0   3   0  0  0
   9  0  0   4   0   0  1  0
  10  0  0   0   5   0  0  0
  11  3  0   0   0   0  0  0
  12  0  0   2   0   0  0  0
  13  0  2   0   0   0  0  0
  14  0  0   2   0   0  0  0
  15  2  0   0   0   0  0  0
  16  0  0   0   6   0  0  0
  17  0  0   4   0   0  1  0
  18  0  0   0   7   0  0  0
  19  3  0   0   0   0  0  0
  20  0  0   2   0   0  0  0
  21  0  2   0   0   0  0  0
  22  0  0   2   0   0  0  0
  23  2  0   0   0   0  0  0
  24  0  0   0   8   0  0  0
  25  0  0   4   0   0  1  0
  26  0  0   0   9   0  0  0
  27  3  0   0   0   0  0  0
  28  0  0   2   0   0  0  0
  29  0  2   0   0   0  0  0
  30  0  0   2   0   0  0  0
  31  2  0   0   0   0  0  0
  32  0  0   0  10   0  0  0
  33  0  0   4   0   0  1  0
  34  0  0   0  11   0  0  0
  35  3  0   0   0   0  0  0
  36  0  0   2   0   0  0  0
  37  0  2   0   0   0  0  0
  38  0  0   2   0   0  0  0
  39  2  0   0   0   0  0  0
  40  0  0   0  12   0  0  0
  41  0  0   4   0   0  1  0
  42  0  0   0  13   0  0  0
  43  3  0   0   0   0  0  0
  44  0  0   2   0   0  0  0
  45  0  2   0   0   0  0  0
  46  0  0   2   0   0  0  0
  47  2  0   0   0   0  0  0
  48  0  0   0  14   0  0  0
  49  0  0   4   0   0  1  0
  50  0  0   0  15   0  0  0
  51  3  0   0   0   0  0  0
  52  0  0   2   0   0  0  0
  53  0  2   0   0   0  0  0
  54  0  0   2   0   0  0  0
  55  2  0   0   0   0  0  0
  56  0  0   0  16   0  0  0
  57  0  0   4   0   0  1  0
  58  0  0   0  17   0  0  0
  59  3  0   0   0   0  0  0
  60  0  0   2   0   0  0  0
  61  0  2   0   0   0  0  0
  62  0  0   2   0   0  0  0
  63  2  0   0   0   0  0  0
  64  0  0   0  18   0  0  0
  65  0  0   4   0   0  1  0
  66  0  0   0  19   0  0  0
  67  3  0   0   0   0  0  0
  68  0  0   2   0   0  0  0
  69  0  2   0   0   0  0  0
  70  0  0   2   0   0  0  0
  71  2  0   0   0   0  0  0
  72  0  0   0  20   0  0  0
  73  0  0   4   0   0  1  0
  74  0  0   0  21   0  0  0
  75  3  0   0   0   0  0  0
  76  0  0   2   0   0  0  0
  77  0  2   0   0   0  0  0
  78  0  0   2   0   0  0  0
  79  2  0   0   0   0  0  0
  80  0  0   0  19   0  0  0
  81  0  0   4   0   0  1  0
  82  0  0   0  18   0  0  0
  83  3  0   0   0   0  0  0
  84  0  0   2   0   0  0  0
  85  0  2   0   0   0  0  0
  86  0  0   2   0   0  0  0
  87  2  0   0   0   0  0  0
  88  0  0   0  17   0  0  0
  89  0  0   4   0   0  1  0
  90  0  0   0  16   0  0  0
  91  3  0   0   0   0  0  0
  92  0  0   2   0   0  0  0
  93  0  2   0   0   0  0  0
  94  0  0   2   0   0  0  0
  95  2  0   0   0   0  0  0
  96  0  0   0  15   0  0  0
  97  0  0   4   0   0  1  0
  98  0  0   0  14   0  0  0
  99  3  0   0   0   0  0  0
 100  0  0   2   0   0  0  0
 101  0  2   0   0   0  0  0
 102  0  0   2   0   0  0  0
 103  2  0   0   0   0  0  0
 104  0  0   0  13   0  0  0
 105  0  0   4   0   0  1  0
 106  0  0   0  12   0  0  0
 107  3  0   0   0   0  0  0
 108  0  0   2   0   0  0  0
 109  0  2   0   0   0  0  0
 110  0  0   2   0   0  0  0
 111  2  0   0   0   0  0  0
 112  0  0   0  11   0  0  0
 113  0  0   4   0   0  1  0
 114  0  0   0  10   0  0  0
 115  3  0   0   0   0  0  0
 116  0  0   2   0   0  0  0
 117  0  2   0   0   0  0  0
 118  0  0   2   0   0  0  0
 119  2  0   0   0   0  0  0
 120  0  0   0   9   0  0  0
 121  0  0   4   0   0  1  0
 122  0  0   0   8   0  0  0
 123  3  0   0   0   0  0  0
 124  0  0   2   0   0  0  0
 125  0  2   0   0   0  0  0
 126  0  0   2   0   0  0  0
 127  2  0   0   0   0  0  0
 128  0  0   0   7   0  0  0
 129  0  0   4   0   0  1  0
 130  0  0   0   6   0  0  0
 131  4  0   0   0   0  0  0
 132  0  1   0   0   0  0  0
 133  1  0   0   0   0  0  0
 134  0  0   1   0   0  0  0
 135  0  0   2   0   0  0  0
 136  0  2   0   0   0  0  0
 137  0  0   2   0   0  0  0
 138  2  0   0   0   0  0  0
 139  0  0   0   3   0  0  0
 140  0  0   4   0   0  1  0
 141  0  0   0   5   0  0  0
 142  3  0   0   0   0  0  0
 143  0  0   2   0   0  0  0
 144  0  2   0   0   0  0  0
 145  0  0   2   0   0  0  0
 146  2  0   0   0   0  0  0
 147  0  0   0   6   0  0  0
 148  0  0   4   0   0  1  0
 149  0  0   0   7   0  0  0
 150  3  0   0   0   0  0  0
 151  0  0   2   0   0  0  0
 152  0  2   0   0   0  0  0
 153  0  0   2   0   0  0  0
 154  2  0   0   0   0  0  0
 155  0  0   0   8   0  0  0
 156  0  0   4   0   0  1  0
 157  0  0   0   9   0  0  0
 158  3  0   0   0   0  0  0
 159  0  0   2   0   0  0  0
 160  0  2   0   0   0  0  0
 161  0  0   2   0   0  0  0
 162  2  0   0   0   0  0  0
 163  0  0   0  10   0  0  0
 164  0  0   4   0   0  1  0
 165  0  0   0  11   0  0  0
 166  3  0   0   0   0  0  0
 167  0  0   2   0   0  0  0
 168  0  2   0   0   0  0  0
 169  0  0   2   0   0  0  0
 170  2  0   0   0   0  0  0
 171  0  0   0  12   0  0  0
 172  0  0   4   0   0  1  0
 173  0  0   0  13   0  0  0
 174  3  0   0   0   0  0  0
 175  0  0   2   0   0  0  0
 176  0  2   0   0   0  0  0
 177  0  0   2   0   0  0  0
 178  2  0   0   0   0  0  0
 179  0  0   0  14   0  0  0
 180  0  0   4   0   0  1  0
 181  0  0   0  15   0  0  0
 182  3  0   0   0   0  0  0
 183  0  0   2   0   0  0  0
 184  0  2   0   0   0  0  0
 185  0  0   2   0   0  0  0
 186  2  0   0   0   0  0  0
 187  0  0   0  16   0  0  0
 188  0  0   4   0   0  1  0
 189  0  0   0  17   0  0  0
 190  3  0   0   0   0  0  0
 191  0  0   2   0   0  0  0
 192  0  2   0   0   0  0  0
 193  0  0   2   0   0  0  0
 194  2  0   0   0   0  0  0
 195  0  0   0  18   0  0  0
 196  0  0   4   0   0  1  0
 197  0  0   0  19   0  0  0
 198  3  0   0   0   0  0  0
 199  0  0   2   0   0  0  0
 200  0  2   0   0   0  0  0
 201  0  0   2   0   0  0  0
 202  2  0   0   0   0  0  0
 203  0  0   0  20   0  0  0
 204  0  0   4   0   0  1  0
 205  0  0   0  21   0  0  0
 206  3  0   0   0   0  0  0
 207  0  0   2   0   0  0  0
 208  0  2   0   0   0  0  0
 209  0  0   2   0   0  0  0
 210  2  0   0   0   0  0  0
 211  0  0   0  19   0  0  0
 212  0  0   4   0   0  1  0
 213  0  0   0  18   0  0  0
 214  3  0   0   0   0  0  0
 215  0  0   2   0   0  0  0
 216  0  2   0   0   0  0  0
 217  0  0   2   0   0  0  0
 218  2  0   0   0   0  0  0
 219  0  0   0  17   0  0  0
 220  0  0   4   0   0  1  0
 221  0  0   0  16   0  0  0
 222  3  0   0   0   0  0  0
 223  0  0   2   0   0  0  0
 224  0  2   0   0   0  0  0
 225  0  0   2   0   0  0  0
 226  2  0   0   0   0  0  0
 227  0  0   0  15   0  0  0
 228  0  0   4   0   0  1  0
 229  0  0   0  14   0  0  0
 230  3  0   0   0   0  0  0
 231  0  0   2   0   0  0  0
 232  0  2   0   0   0  0  0
 233  0  0   2   0   0  0  0
 234  2  0   0   0   0  0  0
 235  0  0   0  13   0  0  0
 236  0  0   4   0   0  1  0
 237  0  0   0  12   0  0  0
 238  3  0   0   0   0  0  0
 239  0  0   2   0   0  0  0
 240  0  2   0   0   0  0  0
 241  0  0   2   0   0  0  0
 242  2  0   0   0   0  0  0
 243  0  0   0  11   0  0  0
 244  0  0   4   0   0  1  0
 245  0  0   0  10   0  0  0
 246  3  0   0   0   0  0  0
 247  0  0   2   0   0  0  0
 248  0  2   0   0   0  0  0
 249  0  0   2   0   0  0  0
 250  2  0   0   0   0  0  0
 251  0  0   0   9   0  0  0
 252  0  0   4   0   0  1  0
 253  0  0   0   8   0  0  0
 254  3  0   0   0   0  0  0
 255  0  0   2   0   0  0  0
 256  0  2   0   0   0  0  0
 257  0  0   2   0   0  0  0
 258  2  0   0   0   0  0  0
 259  0  0   0   7   0  0  0
 260  0  0   4   0   0  1  0
 261  0  0   0   6   0  0  0
 262  4  0   0   0   0  0  0
 263  0  1   0   0   0  0  0
 264  1  0   0   0   0  0  0
 265  0  0   1   0   0  0  0
 266  0  0   2   0   0  0  0
 267  0  2   0   0   0  0  0
 268  0  0   2   0   0  0  0
 269  2  0   0   0   0  0  0
 270  0  0   0  22   0  0  0
 271  0  0   4   0   0  1  0
 272  0  0   0  23   0  0  0
 273  3  0   0   0   0  0  0
 274  0  0   2   0   0  0  0
 275  0  2   0   0   0  0  0
 276  0  0   2   0   0  0  0
 277  2  0   0   0   0  0  0
 278  0  0   0  24   0  0  0
 279  0  0   4   0   0  1  0
 280  0  0   0  25   0  0  0
 281  3  0   0   0   0  0  0
 282  0  0   2   0   0  0  0
 283  0  2   0   0   0  0  0
 284  0  0   2   0   0  0  0
 285  2  0   0   0   0  0  0
 286  0  0   0  26   0  0  0
 287  0  0   4   0   0  1  0
 288  0  0   0  27   0  0  0
 289  3  0   0   0   0  0  0
 290  0  0   2   0   0  0  0
 291  0  2   0   0   0  0  0
 292  0  0   2   0   0  0  0
 293  2  0   0   0   0  0  0
 294  0  0   0  28   0  0  0
 295  0  0   4   0   0  1  0
 296  0  0   0  29   0  0  0
 297  3  0   0   0   0  0  0
 298  0  0   2   0   0  0  0
 299  0  2   0   0   0  0  0
 300  0  0   2   0   0  0  0
 301  2  0   0   0   0  0  0
 302  0  0   0  30   0  0  0
 303  0  0   4   0   0  1  0
 304  0  0   0  31   0  0  0
 305  3  0   0   0   0  0  0
 306  0  0   2   0   0  0  0
 307  0  2   0   0   0  0  0
 308  0  0   2   0   0  0  0
 309  2  0   0   0   0  0  0
 310  0  0   0  32   0  0  0
 311  0  0   4   0   0  1  0
 312  0  0   0  33   0  0  0
 313  3  0   0   0   0  0  0
 314  0  0   2   0   0  0  0
 315  0  2   0   0   0  0  0
 316  0  0   2   0   0  0  0
 317  2  0   0   0   0  0  0
 318  0  0   0  34   0  0  0
 319  0  0   4   0   0  1  0
 320  0  0   0  35   0  0  0
 321  3  0   0   0   0  0  0
 322  0  0   2   0   0  0  0
 323  0  2   0   0   0  0  0
 324  0  0   2   0   0  0  0
 325  2  0   0   0   0  0  0
 326  0  0   0  36   0  0  0
 327  0  0   4   0   0  1  0
 328  0  0   0  37   0  0  0
 329  3  0   0   0   0  0  0
 330  0  0   2   0   0  0  0
 331  0  2   0   0   0  0  0
 332  0  0   2   0   0  0  0
 333  2  0   0   0   0  0  0
[RF]
1         2500 1 2 500 0 0
2         2500 3 4 500 0 1.5708

# Format of trapezoid gradients:
# id amplitude rise flat fall delay
# ..      Hz/m   us   us   us    us
[TRAP]
 1  3.23232e+06 100 3200 100   0
 2            0  10  480  10   0
 3 -4.70588e+06 140 1220 140   0
 4  6.66667e+06 200 3000 200   0
 5  4.70588e+06 140 1220 140   0
 6 -4.05797e+06 120 1260 120   0
 7  4.05797e+06 120 1260 120   0
 8 -3.45324e+06 110 1280 110   0
 9  3.45324e+06 110 1280 110   0
10 -2.83688e+06  90 1320  90   0
11  2.83688e+06  90 1320  90   0
12 -2.23776e+06  70 1360  70   0
13  2.23776e+06  70 1360  70   0
14 -1.65517e+06  50 1400  50   0
15  1.65517e+06  50 1400  50   0
16 -1.09589e+06  40 1420  40   0
17  1.09589e+06  40 1420  40   0
18      -540541  20 1460  20   0
19       540541  20 1460  20   0
20            0  10 1480  10   0
21           -0  10 1480  10   0
22 -4.63235e+06 140 1220 140   0
23  4.63235e+06 140 1220 140   0
24 -3.98551e+06 120 1260 120   0
25  3.98551e+06 120 1260 120   0
26 -3.35714e+06 100 1300 100   0
27  3.35714e+06 100 1300 100   0
28 -2.76596e+06  90 1320  90   0
29  2.76596e+06  90 1320  90   0
30 -2.16783e+06  70 1360  70   0
31  2.16783e+06  70 1360  70   0
32 -1.58621e+06  50 1400  50   0
33  1.58621e+06  50 1400  50   0
34 -1.02041e+06  30 1440  30   0
35  1.02041e+06  30 1440  30   0
36      -472973  20 1460  20   0
37       472973  20 1460  20   0
38      67114.1  10 1480  10   0
39     -67114.1  10 1480  10   0
40       608108  20 1460  20   0
41      -608108  20 1460  20   0
42  1.16438e+06  40 1420  40   0
43 -1.16438e+06  40 1420  40   0
44  1.73611e+06  60 1380  60   0
45 -1.73611e+06  60 1380  60   0
46  2.30769e+06  70 1360  70   0
47 -2.30769e+06  70 1360  70   0
48   2.9078e+06  90 1320  90   0
49  -2.9078e+06  90 1320  90   0
50  3.52518e+06 110 1280 110   0
51 -3.52518e+06 110 1280 110   0
52  4.16058e+06 130 1240 130   0
53 -4.16058e+06 130 1240 130   0
54 -4.55882e+06 140 1220 140   0
55  4.55882e+06 140 1220 140   0
56 -3.91304e+06 120 1260 120   0
57  3.91304e+06 120 1260 120   0
58 -3.28571e+06 100 1300 100   0
59  3.28571e+06 100 1300 100   0
60 -2.67606e+06  80 1340  80   0
61  2.67606e+06  80 1340  80   0
62  -2.0979e+06  70 1360  70   0
63   2.0979e+06  70 1360  70   0
64 -1.51724e+06  50 1400  50   0
65  1.51724e+06  50 1400  50   0
66      -952381  30 1440  30   0
67       952381  30 1440  30   0
68      -405405  20 1460  20   0
69       405405  20 1460  20   0
70       134228  10 1480  10   0
71      -134228  10 1480  10   0
72       675676  20 1460  20   0
73      -675676  20 1460  20   0
74  1.23288e+06  40 1420  40   0
75 -1.23288e+06  40 1420  40   0
76  1.80556e+06  60 1380  60   0
77 -1.80556e+06  60 1380  60   0
78  2.37762e+06  70 1360  70   0
79 -2.37762e+06  70 1360  70   0
80  2.97872e+06  90 1320  90   0
81 -2.97872e+06  90 1320  90   0
82  3.59712e+06 110 1280 110   0
83 -3.59712e+06 110 1280 110   0
84  4.23358e+06 130 1240 130   0
85 -4.23358e+06 130 1240 130   0
86 -4.48529e+06 140 1220 140   0
87  4.48529e+06 140 1220 140   0
88 -3.84058e+06 120 1260 120   0
89  3.84058e+06 120 1260 120   0
90 -3.21429e+06 100 1300 100   0
91  3.21429e+06 100 1300 100   0
92 -2.60563e+06  80 1340  80   0
93  2.60563e+06  80 1340  80   0
94 -2.01389e+06  60 1380  60   0
95  2.01389e+06  60 1380  60   0
96 -1.44828e+06  50 1400  50   0
97  1.44828e+06  50 1400  50   0
98      -884354  30 1440  30   0
99       884354  30 1440  30   0
100      -335570  10 1480  10   0
101       335570  10 1480  10   0
102       201342  10 1480  10   0
103      -201342  10 1480  10   0
104       748299  30 1440  30   0
105      -748299  30 1440  30   0
106  1.30137e+06  40 1420  40   0
107 -1.30137e+06  40 1420  40   0
108    1.875e+06  60 1380  60   0
109   -1.875e+06  60 1380  60   0
110  2.46479e+06  80 1340  80   0
111 -2.46479e+06  80 1340  80   0
112  3.04965e+06  90 1320  90   0
113 -3.04965e+06  90 1320  90   0
114  3.66906e+06 110 1280 110   0
115 -3.66906e+06 110 1280 110   0
116  4.30657e+06 130 1240 130   0
117 -4.30657e+06 130 1240 130   0
118 -4.37956e+06 130 1240 130   0
119  4.37956e+06 130 1240 130   0
120 -3.74101e+06 110 1280 110   0
121  3.74101e+06 110 1280 110   0
122 -3.14286e+06 100 1300 100   0
123  3.14286e+06 100 1300 100   0
124 -2.53521e+06  80 1340  80   0
125  2.53521e+06  80 1340  80   0
126 -1.94444e+06  60 1380  60   0
127  1.94444e+06  60 1380  60   0
128 -1.37931e+06  50 1400  50   0
129  1.37931e+06  50 1400  50   0
130      -816327  30 1440  30   0
131       816327  30 1440  30   0
132      -268456  10 1480  10   0
133       268456  10 1480  10   0

# Format of ADC events:
# id num dwell delay freq phase
# ..  ..    ns    us   Hz   rad
[ADC]
1 800 3750 195 0 0

# Format of delays:
# id delay (us)
[DELAYS]
1 450
2 1200
3 700
4 4837700

# Sequence Shapes
[SHAPES]

shape_id 1
num_samples 100
1
0
0
97

shape_id 2
num_samples 100
0
0
98

shape_id 3
num_samples 200
1
0
0
197

shape_id 4
num_samples 200
0
0
198

