# Pulseq sequence file
# Created by MATLAB mr toolbox

[VERSION]
major 1
minor 3
revision 1

[DEFINITIONS]
Bandwidth [Hz] 266666.667 
FOV 0.012 0.012 
Name se_2d 
Nx 200 
Ny 63 
TE [s] 0.0035 
TR 5 
grad_interval] 1e-05 
rf_interval] 1e-06 

# Format of blocks:
#  #  D RF  GX  GY  GZ ADC EXT
[BLOCKS]
  1  0  1   0   0   0  0  0
  2  0  0   1   2   0  0  0
  3  1  0   0   0   0  0  0
  4  0  0   3   0   0  1  0
  5  2  0   0   0   0  0  0
  6  0  1   0   0   0  0  0
  7  0  0   1   4   0  0  0
  8  1  0   0   0   0  0  0
  9  0  0   3   0   0  1  0
 10  2  0   0   0   0  0  0
 11  0  1   0   0   0  0  0
 12  0  0   1   5   0  0  0
 13  1  0   0   0   0  0  0
 14  0  0   3   0   0  1  0
 15  2  0   0   0   0  0  0
 16  0  1   0   0   0  0  0
 17  0  0   1   6   0  0  0
 18  1  0   0   0   0  0  0
 19  0  0   3   0   0  1  0
 20  2  0   0   0   0  0  0
 21  0  1   0   0   0  0  0
 22  0  0   1   7   0  0  0
 23  1  0   0   0   0  0  0
 24  0  0   3   0   0  1  0
 25  2  0   0   0   0  0  0
 26  0  1   0   0   0  0  0
 27  0  0   1   8   0  0  0
 28  1  0   0   0   0  0  0
 29  0  0   3   0   0  1  0
 30  2  0   0   0   0  0  0
 31  0  1   0   0   0  0  0
 32  0  0   1   9   0  0  0
 33  1  0   0   0   0  0  0
 34  0  0   3   0   0  1  0
 35  2  0   0   0   0  0  0
 36  0  1   0   0   0  0  0
 37  0  0   1  10   0  0  0
 38  1  0   0   0   0  0  0
 39  0  0   3   0   0  1  0
 40  2  0   0   0   0  0  0
 41  0  1   0   0   0  0  0
 42  0  0   1  11   0  0  0
 43  1  0   0   0   0  0  0
 44  0  0   3   0   0  1  0
 45  2  0   0   0   0  0  0
 46  0  1   0   0   0  0  0
 47  0  0   1  12   0  0  0
 48  1  0   0   0   0  0  0
 49  0  0   3   0   0  1  0
 50  2  0   0   0   0  0  0
 51  0  1   0   0   0  0  0
 52  0  0   1  13   0  0  0
 53  1  0   0   0   0  0  0
 54  0  0   3   0   0  1  0
 55  2  0   0   0   0  0  0
 56  0  1   0   0   0  0  0
 57  0  0   1  14   0  0  0
 58  1  0   0   0   0  0  0
 59  0  0   3   0   0  1  0
 60  2  0   0   0   0  0  0
 61  0  1   0   0   0  0  0
 62  0  0   1  15   0  0  0
 63  1  0   0   0   0  0  0
 64  0  0   3   0   0  1  0
 65  2  0   0   0   0  0  0
 66  0  1   0   0   0  0  0
 67  0  0   1  16   0  0  0
 68  1  0   0   0   0  0  0
 69  0  0   3   0   0  1  0
 70  2  0   0   0   0  0  0
 71  0  1   0   0   0  0  0
 72  0  0   1  17   0  0  0
 73  1  0   0   0   0  0  0
 74  0  0   3   0   0  1  0
 75  2  0   0   0   0  0  0
 76  0  1   0   0   0  0  0
 77  0  0   1  18   0  0  0
 78  1  0   0   0   0  0  0
 79  0  0   3   0   0  1  0
 80  2  0   0   0   0  0  0
 81  0  1   0   0   0  0  0
 82  0  0   1  19   0  0  0
 83  1  0   0   0   0  0  0
 84  0  0   3   0   0  1  0
 85  2  0   0   0   0  0  0
 86  0  1   0   0   0  0  0
 87  0  0   1  20   0  0  0
 88  1  0   0   0   0  0  0
 89  0  0   3   0   0  1  0
 90  2  0   0   0   0  0  0
 91  0  1   0   0   0  0  0
 92  0  0   1  21   0  0  0
 93  1  0   0   0   0  0  0
 94  0  0   3   0   0  1  0
 95  2  0   0   0   0  0  0
 96  0  1   0   0   0  0  0
 97  0  0   1  22   0  0  0
 98  1  0   0   0   0  0  0
 99  0  0   3   0   0  1  0
100  2  0   0   0   0  0  0
101  0  1   0   0   0  0  0
102  0  0   1  23   0  0  0
103  1  0   0   0   0  0  0
104  0  0   3   0   0  1  0
105  2  0   0   0   0  0  0
106  0  1   0   0   0  0  0
107  0  0   1  24   0  0  0
108  1  0   0   0   0  0  0
109  0  0   3   0   0  1  0
110  2  0   0   0   0  0  0
111  0  1   0   0   0  0  0
112  0  0   1  25   0  0  0
113  1  0   0   0   0  0  0
114  0  0   3   0   0  1  0
115  2  0   0   0   0  0  0
116  0  1   0   0   0  0  0
117  0  0   1  26   0  0  0
118  1  0   0   0   0  0  0
119  0  0   3   0   0  1  0
120  2  0   0   0   0  0  0
121  0  1   0   0   0  0  0
122  0  0   1  27   0  0  0
123  1  0   0   0   0  0  0
124  0  0   3   0   0  1  0
125  2  0   0   0   0  0  0
126  0  1   0   0   0  0  0
127  0  0   1  28   0  0  0
128  1  0   0   0   0  0  0
129  0  0   3   0   0  1  0
130  2  0   0   0   0  0  0
131  0  1   0   0   0  0  0
132  0  0   1  29   0  0  0
133  1  0   0   0   0  0  0
134  0  0   3   0   0  1  0
135  2  0   0   0   0  0  0
136  0  1   0   0   0  0  0
137  0  0   1  30   0  0  0
138  1  0   0   0   0  0  0
139  0  0   3   0   0  1  0
140  2  0   0   0   0  0  0
141  0  1   0   0   0  0  0
142  0  0   1  31   0  0  0
143  1  0   0   0   0  0  0
144  0  0   3   0   0  1  0
145  2  0   0   0   0  0  0
146  0  1   0   0   0  0  0
147  0  0   1  32   0  0  0
148  1  0   0   0   0  0  0
149  0  0   3   0   0  1  0
150  2  0   0   0   0  0  0
151  0  1   0   0   0  0  0
152  0  0   1  33   0  0  0
153  1  0   0   0   0  0  0
154  0  0   3   0   0  1  0
155  2  0   0   0   0  0  0
156  0  1   0   0   0  0  0
157  0  0   1  34   0  0  0
158  1  0   0   0   0  0  0
159  0  0   3   0   0  1  0
160  2  0   0   0   0  0  0
161  0  1   0   0   0  0  0
162  0  0   1  35   0  0  0
163  1  0   0   0   0  0  0
164  0  0   3   0   0  1  0
165  2  0   0   0   0  0  0
166  0  1   0   0   0  0  0
167  0  0   1  36   0  0  0
168  1  0   0   0   0  0  0
169  0  0   3   0   0  1  0
170  2  0   0   0   0  0  0
171  0  1   0   0   0  0  0
172  0  0   1  37   0  0  0
173  1  0   0   0   0  0  0
174  0  0   3   0   0  1  0
175  2  0   0   0   0  0  0
176  0  1   0   0   0  0  0
177  0  0   1  38   0  0  0
178  1  0   0   0   0  0  0
179  0  0   3   0   0  1  0
180  2  0   0   0   0  0  0
181  0  1   0   0   0  0  0
182  0  0   1  39   0  0  0
183  1  0   0   0   0  0  0
184  0  0   3   0   0  1  0
185  2  0   0   0   0  0  0
186  0  1   0   0   0  0  0
187  0  0   1  40   0  0  0
188  1  0   0   0   0  0  0
189  0  0   3   0   0  1  0
190  2  0   0   0   0  0  0
191  0  1   0   0   0  0  0
192  0  0   1  41   0  0  0
193  1  0   0   0   0  0  0
194  0  0   3   0   0  1  0
195  2  0   0   0   0  0  0
196  0  1   0   0   0  0  0
197  0  0   1  42   0  0  0
198  1  0   0   0   0  0  0
199  0  0   3   0   0  1  0
200  2  0   0   0   0  0  0
201  0  1   0   0   0  0  0
202  0  0   1  43   0  0  0
203  1  0   0   0   0  0  0
204  0  0   3   0   0  1  0
205  2  0   0   0   0  0  0
206  0  1   0   0   0  0  0
207  0  0   1  44   0  0  0
208  1  0   0   0   0  0  0
209  0  0   3   0   0  1  0
210  2  0   0   0   0  0  0
211  0  1   0   0   0  0  0
212  0  0   1  45   0  0  0
213  1  0   0   0   0  0  0
214  0  0   3   0   0  1  0
215  2  0   0   0   0  0  0
216  0  1   0   0   0  0  0
217  0  0   1  46   0  0  0
218  1  0   0   0   0  0  0
219  0  0   3   0   0  1  0
220  2  0   0   0   0  0  0
221  0  1   0   0   0  0  0
222  0  0   1  47   0  0  0
223  1  0   0   0   0  0  0
224  0  0   3   0   0  1  0
225  2  0   0   0   0  0  0
226  0  1   0   0   0  0  0
227  0  0   1  48   0  0  0
228  1  0   0   0   0  0  0
229  0  0   3   0   0  1  0
230  2  0   0   0   0  0  0
231  0  1   0   0   0  0  0
232  0  0   1  49   0  0  0
233  1  0   0   0   0  0  0
234  0  0   3   0   0  1  0
235  2  0   0   0   0  0  0
236  0  1   0   0   0  0  0
237  0  0   1  50   0  0  0
238  1  0   0   0   0  0  0
239  0  0   3   0   0  1  0
240  2  0   0   0   0  0  0
241  0  1   0   0   0  0  0
242  0  0   1  51   0  0  0
243  1  0   0   0   0  0  0
244  0  0   3   0   0  1  0
245  2  0   0   0   0  0  0
246  0  1   0   0   0  0  0
247  0  0   1  52   0  0  0
248  1  0   0   0   0  0  0
249  0  0   3   0   0  1  0
250  2  0   0   0   0  0  0
251  0  1   0   0   0  0  0
252  0  0   1  53   0  0  0
253  1  0   0   0   0  0  0
254  0  0   3   0   0  1  0
255  2  0   0   0   0  0  0
256  0  1   0   0   0  0  0
257  0  0   1  54   0  0  0
258  1  0   0   0   0  0  0
259  0  0   3   0   0  1  0
260  2  0   0   0   0  0  0
261  0  1   0   0   0  0  0
262  0  0   1  55   0  0  0
263  1  0   0   0   0  0  0
264  0  0   3   0   0  1  0
265  2  0   0   0   0  0  0
266  0  1   0   0   0  0  0
267  0  0   1  56   0  0  0
268  1  0   0   0   0  0  0
269  0  0   3   0   0  1  0
270  2  0   0   0   0  0  0
271  0  1   0   0   0  0  0
272  0  0   1  57   0  0  0
273  1  0   0   0   0  0  0
274  0  0   3   0   0  1  0
275  2  0   0   0   0  0  0
276  0  1   0   0   0  0  0
277  0  0   1  58   0  0  0
278  1  0   0   0   0  0  0
279  0  0   3   0   0  1  0
280  2  0   0   0   0  0  0
281  0  1   0   0   0  0  0
282  0  0   1  59   0  0  0
283  1  0   0   0   0  0  0
284  0  0   3   0   0  1  0
285  2  0   0   0   0  0  0
286  0  1   0   0   0  0  0
287  0  0   1  60   0  0  0
288  1  0   0   0   0  0  0
289  0  0   3   0   0  1  0
290  2  0   0   0   0  0  0
291  0  1   0   0   0  0  0
292  0  0   1  61   0  0  0
293  1  0   0   0   0  0  0
294  0  0   3   0   0  1  0
295  2  0   0   0   0  0  0
296  0  1   0   0   0  0  0
297  0  0   1  62   0  0  0
298  1  0   0   0   0  0  0
299  0  0   3   0   0  1  0
300  2  0   0   0   0  0  0
301  0  1   0   0   0  0  0
302  0  0   1  63   0  0  0
303  1  0   0   0   0  0  0
304  0  0   3   0   0  1  0
305  2  0   0   0   0  0  0
306  0  1   0   0   0  0  0
307  0  0   1  64   0  0  0
308  1  0   0   0   0  0  0
309  0  0   3   0   0  1  0
310  2  0   0   0   0  0  0
311  0  1   0   0   0  0  0
312  0  0   1  65   0  0  0
313  1  0   0   0   0  0  0
314  0  0   3   0   0  1  0
315  2  0   0   0   0  0  0

# Format of RF events:
# id amplitude mag_id phase_id delay freq phase
# ..        Hz   ....     ....    us   Hz   rad
[RF]
1         2500 1 2 500 0 0

# Format of trapezoid gradients:
# id amplitude rise flat fall delay
# ..      Hz/m   us   us   us    us
[TRAP]
 1 -1.05114e+07 620  260 620   0
 2 -1.90217e+06 120 1260 120   0
 3  5.55556e+06 330 3000 330   0
 4 -1.82757e+06 110 1280 110   0
 5 -1.76665e+06 110 1280 110   0
 6 -1.69355e+06 100 1300 100   0
 7 -1.63306e+06 100 1300 100   0
 8 -1.57258e+06 100 1300 100   0
 9 -1.50137e+06  90 1320  90   0
10 -1.44132e+06  90 1320  90   0
11 -1.38126e+06  90 1320  90   0
12  -1.3119e+06  80 1340  80   0
13 -1.25227e+06  80 1340  80   0
14  -1.1843e+06  70 1360  70   0
15 -1.12508e+06  70 1360  70   0
16 -1.06587e+06  70 1360  70   0
17      -999664  60 1380  60   0
18      -940860  60 1380  60   0
19      -882056  60 1380  60   0
20      -817575  50 1400  50   0
21      -759177  50 1400  50   0
22      -700779  50 1400  50   0
23      -637981  40 1420  40   0
24      -579982  40 1420  40   0
25      -521984  40 1420  40   0
26      -460829  30 1440  30   0
27      -403226  30 1440  30   0
28      -345622  30 1440  30   0
29      -286072  20 1460  20   0
30      -228858  20 1460  20   0
31      -171643  20 1460  20   0
32      -113661  10 1480  10   0
33     -56830.5  10 1480  10   0
34            0  10 1480  10   0
35      56830.5  10 1480  10   0
36       113661  10 1480  10   0
37       171643  20 1460  20   0
38       228858  20 1460  20   0
39       286072  20 1460  20   0
40       345622  30 1440  30   0
41       403226  30 1440  30   0
42       460829  30 1440  30   0
43       521984  40 1420  40   0
44       579982  40 1420  40   0
45       637981  40 1420  40   0
46       700779  50 1400  50   0
47       759177  50 1400  50   0
48       817575  50 1400  50   0
49       882056  60 1380  60   0
50       940860  60 1380  60   0
51       999664  60 1380  60   0
52  1.06587e+06  70 1360  70   0
53  1.12508e+06  70 1360  70   0
54   1.1843e+06  70 1360  70   0
55  1.25227e+06  80 1340  80   0
56   1.3119e+06  80 1340  80   0
57  1.38126e+06  90 1320  90   0
58  1.44132e+06  90 1320  90   0
59  1.50137e+06  90 1320  90   0
60  1.57258e+06 100 1300 100   0
61  1.63306e+06 100 1300 100   0
62  1.69355e+06 100 1300 100   0
63  1.76665e+06 110 1280 110   0
64  1.82757e+06 110 1280 110   0
65  1.90217e+06 120 1260 120   0

# Format of ADC events:
# id num dwell delay freq phase
# ..  ..    ns    us   Hz   rad
[ADC]
1 800 3750 330 0 0

# Format of delays:
# id delay (us)
[DELAYS]
1 120
2 4992370

# Sequence Shapes
[SHAPES]

shape_id 1
num_samples 100
1
0
0
97

shape_id 2
num_samples 100
0
0
98

