# Pulseq sequence file
# Created by MATLAB mr toolbox

[VERSION]
major 1
minor 3
revision 1

[DEFINITIONS]
Bandwidth [Hz] 200000 
FOV 0.012 0.012 
Name se_2d 
Nx 200 
Ny 63 
TE [s] 0.012 
TR 5 
grad_interval] 1e-05 
rf_interval] 1e-06 

# Format of blocks:
#  #  D RF  GX  GY  GZ ADC EXT
[BLOCKS]
  1  0  1   0   0   0  0  0
  2  1  0   0   0   0  0  0
  3  0  0   1   2   0  0  0
  4  2  0   0   0   0  0  0
  5  0  0   3   0   0  0  0
  6  0  2   0   0   0  0  0
  7  0  0   3   0   0  0  0
  8  3  0   0   0   0  0  0
  9  0  0   4   0   0  1  0
 10  4  0   0   0   0  0  0
 11  0  1   0   0   0  0  0
 12  1  0   0   0   0  0  0
 13  0  0   1   5   0  0  0
 14  2  0   0   0   0  0  0
 15  0  0   3   0   0  0  0
 16  0  2   0   0   0  0  0
 17  0  0   3   0   0  0  0
 18  3  0   0   0   0  0  0
 19  0  0   4   0   0  1  0
 20  4  0   0   0   0  0  0
 21  0  1   0   0   0  0  0
 22  1  0   0   0   0  0  0
 23  0  0   1   6   0  0  0
 24  2  0   0   0   0  0  0
 25  0  0   3   0   0  0  0
 26  0  2   0   0   0  0  0
 27  0  0   3   0   0  0  0
 28  3  0   0   0   0  0  0
 29  0  0   4   0   0  1  0
 30  4  0   0   0   0  0  0
 31  0  1   0   0   0  0  0
 32  1  0   0   0   0  0  0
 33  0  0   1   7   0  0  0
 34  2  0   0   0   0  0  0
 35  0  0   3   0   0  0  0
 36  0  2   0   0   0  0  0
 37  0  0   3   0   0  0  0
 38  3  0   0   0   0  0  0
 39  0  0   4   0   0  1  0
 40  4  0   0   0   0  0  0
 41  0  1   0   0   0  0  0
 42  1  0   0   0   0  0  0
 43  0  0   1   8   0  0  0
 44  2  0   0   0   0  0  0
 45  0  0   3   0   0  0  0
 46  0  2   0   0   0  0  0
 47  0  0   3   0   0  0  0
 48  3  0   0   0   0  0  0
 49  0  0   4   0   0  1  0
 50  4  0   0   0   0  0  0
 51  0  1   0   0   0  0  0
 52  1  0   0   0   0  0  0
 53  0  0   1   9   0  0  0
 54  2  0   0   0   0  0  0
 55  0  0   3   0   0  0  0
 56  0  2   0   0   0  0  0
 57  0  0   3   0   0  0  0
 58  3  0   0   0   0  0  0
 59  0  0   4   0   0  1  0
 60  4  0   0   0   0  0  0
 61  0  1   0   0   0  0  0
 62  1  0   0   0   0  0  0
 63  0  0   1  10   0  0  0
 64  2  0   0   0   0  0  0
 65  0  0   3   0   0  0  0
 66  0  2   0   0   0  0  0
 67  0  0   3   0   0  0  0
 68  3  0   0   0   0  0  0
 69  0  0   4   0   0  1  0
 70  4  0   0   0   0  0  0
 71  0  1   0   0   0  0  0
 72  1  0   0   0   0  0  0
 73  0  0   1  11   0  0  0
 74  2  0   0   0   0  0  0
 75  0  0   3   0   0  0  0
 76  0  2   0   0   0  0  0
 77  0  0   3   0   0  0  0
 78  3  0   0   0   0  0  0
 79  0  0   4   0   0  1  0
 80  4  0   0   0   0  0  0
 81  0  1   0   0   0  0  0
 82  1  0   0   0   0  0  0
 83  0  0   1  12   0  0  0
 84  2  0   0   0   0  0  0
 85  0  0   3   0   0  0  0
 86  0  2   0   0   0  0  0
 87  0  0   3   0   0  0  0
 88  3  0   0   0   0  0  0
 89  0  0   4   0   0  1  0
 90  4  0   0   0   0  0  0
 91  0  1   0   0   0  0  0
 92  1  0   0   0   0  0  0
 93  0  0   1  13   0  0  0
 94  2  0   0   0   0  0  0
 95  0  0   3   0   0  0  0
 96  0  2   0   0   0  0  0
 97  0  0   3   0   0  0  0
 98  3  0   0   0   0  0  0
 99  0  0   4   0   0  1  0
100  4  0   0   0   0  0  0
101  0  1   0   0   0  0  0
102  1  0   0   0   0  0  0
103  0  0   1  14   0  0  0
104  2  0   0   0   0  0  0
105  0  0   3   0   0  0  0
106  0  2   0   0   0  0  0
107  0  0   3   0   0  0  0
108  3  0   0   0   0  0  0
109  0  0   4   0   0  1  0
110  4  0   0   0   0  0  0
111  0  1   0   0   0  0  0
112  1  0   0   0   0  0  0
113  0  0   1  15   0  0  0
114  2  0   0   0   0  0  0
115  0  0   3   0   0  0  0
116  0  2   0   0   0  0  0
117  0  0   3   0   0  0  0
118  3  0   0   0   0  0  0
119  0  0   4   0   0  1  0
120  4  0   0   0   0  0  0
121  0  1   0   0   0  0  0
122  1  0   0   0   0  0  0
123  0  0   1  16   0  0  0
124  2  0   0   0   0  0  0
125  0  0   3   0   0  0  0
126  0  2   0   0   0  0  0
127  0  0   3   0   0  0  0
128  3  0   0   0   0  0  0
129  0  0   4   0   0  1  0
130  4  0   0   0   0  0  0
131  0  1   0   0   0  0  0
132  1  0   0   0   0  0  0
133  0  0   1  17   0  0  0
134  2  0   0   0   0  0  0
135  0  0   3   0   0  0  0
136  0  2   0   0   0  0  0
137  0  0   3   0   0  0  0
138  3  0   0   0   0  0  0
139  0  0   4   0   0  1  0
140  4  0   0   0   0  0  0
141  0  1   0   0   0  0  0
142  1  0   0   0   0  0  0
143  0  0   1  18   0  0  0
144  2  0   0   0   0  0  0
145  0  0   3   0   0  0  0
146  0  2   0   0   0  0  0
147  0  0   3   0   0  0  0
148  3  0   0   0   0  0  0
149  0  0   4   0   0  1  0
150  4  0   0   0   0  0  0
151  0  1   0   0   0  0  0
152  1  0   0   0   0  0  0
153  0  0   1  19   0  0  0
154  2  0   0   0   0  0  0
155  0  0   3   0   0  0  0
156  0  2   0   0   0  0  0
157  0  0   3   0   0  0  0
158  3  0   0   0   0  0  0
159  0  0   4   0   0  1  0
160  4  0   0   0   0  0  0
161  0  1   0   0   0  0  0
162  1  0   0   0   0  0  0
163  0  0   1  20   0  0  0
164  2  0   0   0   0  0  0
165  0  0   3   0   0  0  0
166  0  2   0   0   0  0  0
167  0  0   3   0   0  0  0
168  3  0   0   0   0  0  0
169  0  0   4   0   0  1  0
170  4  0   0   0   0  0  0
171  0  1   0   0   0  0  0
172  1  0   0   0   0  0  0
173  0  0   1  21   0  0  0
174  2  0   0   0   0  0  0
175  0  0   3   0   0  0  0
176  0  2   0   0   0  0  0
177  0  0   3   0   0  0  0
178  3  0   0   0   0  0  0
179  0  0   4   0   0  1  0
180  4  0   0   0   0  0  0
181  0  1   0   0   0  0  0
182  1  0   0   0   0  0  0
183  0  0   1  22   0  0  0
184  2  0   0   0   0  0  0
185  0  0   3   0   0  0  0
186  0  2   0   0   0  0  0
187  0  0   3   0   0  0  0
188  3  0   0   0   0  0  0
189  0  0   4   0   0  1  0
190  4  0   0   0   0  0  0
191  0  1   0   0   0  0  0
192  1  0   0   0   0  0  0
193  0  0   1  23   0  0  0
194  2  0   0   0   0  0  0
195  0  0   3   0   0  0  0
196  0  2   0   0   0  0  0
197  0  0   3   0   0  0  0
198  3  0   0   0   0  0  0
199  0  0   4   0   0  1  0
200  4  0   0   0   0  0  0
201  0  1   0   0   0  0  0
202  1  0   0   0   0  0  0
203  0  0   1  24   0  0  0
204  2  0   0   0   0  0  0
205  0  0   3   0   0  0  0
206  0  2   0   0   0  0  0
207  0  0   3   0   0  0  0
208  3  0   0   0   0  0  0
209  0  0   4   0   0  1  0
210  4  0   0   0   0  0  0
211  0  1   0   0   0  0  0
212  1  0   0   0   0  0  0
213  0  0   1  25   0  0  0
214  2  0   0   0   0  0  0
215  0  0   3   0   0  0  0
216  0  2   0   0   0  0  0
217  0  0   3   0   0  0  0
218  3  0   0   0   0  0  0
219  0  0   4   0   0  1  0
220  4  0   0   0   0  0  0
221  0  1   0   0   0  0  0
222  1  0   0   0   0  0  0
223  0  0   1  26   0  0  0
224  2  0   0   0   0  0  0
225  0  0   3   0   0  0  0
226  0  2   0   0   0  0  0
227  0  0   3   0   0  0  0
228  3  0   0   0   0  0  0
229  0  0   4   0   0  1  0
230  4  0   0   0   0  0  0
231  0  1   0   0   0  0  0
232  1  0   0   0   0  0  0
233  0  0   1  27   0  0  0
234  2  0   0   0   0  0  0
235  0  0   3   0   0  0  0
236  0  2   0   0   0  0  0
237  0  0   3   0   0  0  0
238  3  0   0   0   0  0  0
239  0  0   4   0   0  1  0
240  4  0   0   0   0  0  0
241  0  1   0   0   0  0  0
242  1  0   0   0   0  0  0
243  0  0   1  28   0  0  0
244  2  0   0   0   0  0  0
245  0  0   3   0   0  0  0
246  0  2   0   0   0  0  0
247  0  0   3   0   0  0  0
248  3  0   0   0   0  0  0
249  0  0   4   0   0  1  0
250  4  0   0   0   0  0  0
251  0  1   0   0   0  0  0
252  1  0   0   0   0  0  0
253  0  0   1  29   0  0  0
254  2  0   0   0   0  0  0
255  0  0   3   0   0  0  0
256  0  2   0   0   0  0  0
257  0  0   3   0   0  0  0
258  3  0   0   0   0  0  0
259  0  0   4   0   0  1  0
260  4  0   0   0   0  0  0
261  0  1   0   0   0  0  0
262  1  0   0   0   0  0  0
263  0  0   1  30   0  0  0
264  2  0   0   0   0  0  0
265  0  0   3   0   0  0  0
266  0  2   0   0   0  0  0
267  0  0   3   0   0  0  0
268  3  0   0   0   0  0  0
269  0  0   4   0   0  1  0
270  4  0   0   0   0  0  0
271  0  1   0   0   0  0  0
272  1  0   0   0   0  0  0
273  0  0   1  31   0  0  0
274  2  0   0   0   0  0  0
275  0  0   3   0   0  0  0
276  0  2   0   0   0  0  0
277  0  0   3   0   0  0  0
278  3  0   0   0   0  0  0
279  0  0   4   0   0  1  0
280  4  0   0   0   0  0  0
281  0  1   0   0   0  0  0
282  1  0   0   0   0  0  0
283  0  0   1  32   0  0  0
284  2  0   0   0   0  0  0
285  0  0   3   0   0  0  0
286  0  2   0   0   0  0  0
287  0  0   3   0   0  0  0
288  3  0   0   0   0  0  0
289  0  0   4   0   0  1  0
290  4  0   0   0   0  0  0
291  0  1   0   0   0  0  0
292  1  0   0   0   0  0  0
293  0  0   1  33   0  0  0
294  2  0   0   0   0  0  0
295  0  0   3   0   0  0  0
296  0  2   0   0   0  0  0
297  0  0   3   0   0  0  0
298  3  0   0   0   0  0  0
299  0  0   4   0   0  1  0
300  4  0   0   0   0  0  0
301  0  1   0   0   0  0  0
302  1  0   0   0   0  0  0
303  0  0   1  34   0  0  0
304  2  0   0   0   0  0  0
305  0  0   3   0   0  0  0
306  0  2   0   0   0  0  0
307  0  0   3   0   0  0  0
308  3  0   0   0   0  0  0
309  0  0   4   0   0  1  0
310  4  0   0   0   0  0  0
311  0  1   0   0   0  0  0
312  1  0   0   0   0  0  0
313  0  0   1  35   0  0  0
314  2  0   0   0   0  0  0
315  0  0   3   0   0  0  0
316  0  2   0   0   0  0  0
317  0  0   3   0   0  0  0
318  3  0   0   0   0  0  0
319  0  0   4   0   0  1  0
320  4  0   0   0   0  0  0
321  0  1   0   0   0  0  0
322  1  0   0   0   0  0  0
323  0  0   1  36   0  0  0
324  2  0   0   0   0  0  0
325  0  0   3   0   0  0  0
326  0  2   0   0   0  0  0
327  0  0   3   0   0  0  0
328  3  0   0   0   0  0  0
329  0  0   4   0   0  1  0
330  4  0   0   0   0  0  0
331  0  1   0   0   0  0  0
332  1  0   0   0   0  0  0
333  0  0   1  37   0  0  0
334  2  0   0   0   0  0  0
335  0  0   3   0   0  0  0
336  0  2   0   0   0  0  0
337  0  0   3   0   0  0  0
338  3  0   0   0   0  0  0
339  0  0   4   0   0  1  0
340  4  0   0   0   0  0  0
341  0  1   0   0   0  0  0
342  1  0   0   0   0  0  0
343  0  0   1  38   0  0  0
344  2  0   0   0   0  0  0
345  0  0   3   0   0  0  0
346  0  2   0   0   0  0  0
347  0  0   3   0   0  0  0
348  3  0   0   0   0  0  0
349  0  0   4   0   0  1  0
350  4  0   0   0   0  0  0
351  0  1   0   0   0  0  0
352  1  0   0   0   0  0  0
353  0  0   1  39   0  0  0
354  2  0   0   0   0  0  0
355  0  0   3   0   0  0  0
356  0  2   0   0   0  0  0
357  0  0   3   0   0  0  0
358  3  0   0   0   0  0  0
359  0  0   4   0   0  1  0
360  4  0   0   0   0  0  0
361  0  1   0   0   0  0  0
362  1  0   0   0   0  0  0
363  0  0   1  40   0  0  0
364  2  0   0   0   0  0  0
365  0  0   3   0   0  0  0
366  0  2   0   0   0  0  0
367  0  0   3   0   0  0  0
368  3  0   0   0   0  0  0
369  0  0   4   0   0  1  0
370  4  0   0   0   0  0  0
371  0  1   0   0   0  0  0
372  1  0   0   0   0  0  0
373  0  0   1  41   0  0  0
374  2  0   0   0   0  0  0
375  0  0   3   0   0  0  0
376  0  2   0   0   0  0  0
377  0  0   3   0   0  0  0
378  3  0   0   0   0  0  0
379  0  0   4   0   0  1  0
380  4  0   0   0   0  0  0
381  0  1   0   0   0  0  0
382  1  0   0   0   0  0  0
383  0  0   1  42   0  0  0
384  2  0   0   0   0  0  0
385  0  0   3   0   0  0  0
386  0  2   0   0   0  0  0
387  0  0   3   0   0  0  0
388  3  0   0   0   0  0  0
389  0  0   4   0   0  1  0
390  4  0   0   0   0  0  0
391  0  1   0   0   0  0  0
392  1  0   0   0   0  0  0
393  0  0   1  43   0  0  0
394  2  0   0   0   0  0  0
395  0  0   3   0   0  0  0
396  0  2   0   0   0  0  0
397  0  0   3   0   0  0  0
398  3  0   0   0   0  0  0
399  0  0   4   0   0  1  0
400  4  0   0   0   0  0  0
401  0  1   0   0   0  0  0
402  1  0   0   0   0  0  0
403  0  0   1  44   0  0  0
404  2  0   0   0   0  0  0
405  0  0   3   0   0  0  0
406  0  2   0   0   0  0  0
407  0  0   3   0   0  0  0
408  3  0   0   0   0  0  0
409  0  0   4   0   0  1  0
410  4  0   0   0   0  0  0
411  0  1   0   0   0  0  0
412  1  0   0   0   0  0  0
413  0  0   1  45   0  0  0
414  2  0   0   0   0  0  0
415  0  0   3   0   0  0  0
416  0  2   0   0   0  0  0
417  0  0   3   0   0  0  0
418  3  0   0   0   0  0  0
419  0  0   4   0   0  1  0
420  4  0   0   0   0  0  0
421  0  1   0   0   0  0  0
422  1  0   0   0   0  0  0
423  0  0   1  46   0  0  0
424  2  0   0   0   0  0  0
425  0  0   3   0   0  0  0
426  0  2   0   0   0  0  0
427  0  0   3   0   0  0  0
428  3  0   0   0   0  0  0
429  0  0   4   0   0  1  0
430  4  0   0   0   0  0  0
431  0  1   0   0   0  0  0
432  1  0   0   0   0  0  0
433  0  0   1  47   0  0  0
434  2  0   0   0   0  0  0
435  0  0   3   0   0  0  0
436  0  2   0   0   0  0  0
437  0  0   3   0   0  0  0
438  3  0   0   0   0  0  0
439  0  0   4   0   0  1  0
440  4  0   0   0   0  0  0
441  0  1   0   0   0  0  0
442  1  0   0   0   0  0  0
443  0  0   1  48   0  0  0
444  2  0   0   0   0  0  0
445  0  0   3   0   0  0  0
446  0  2   0   0   0  0  0
447  0  0   3   0   0  0  0
448  3  0   0   0   0  0  0
449  0  0   4   0   0  1  0
450  4  0   0   0   0  0  0
451  0  1   0   0   0  0  0
452  1  0   0   0   0  0  0
453  0  0   1  49   0  0  0
454  2  0   0   0   0  0  0
455  0  0   3   0   0  0  0
456  0  2   0   0   0  0  0
457  0  0   3   0   0  0  0
458  3  0   0   0   0  0  0
459  0  0   4   0   0  1  0
460  4  0   0   0   0  0  0
461  0  1   0   0   0  0  0
462  1  0   0   0   0  0  0
463  0  0   1  50   0  0  0
464  2  0   0   0   0  0  0
465  0  0   3   0   0  0  0
466  0  2   0   0   0  0  0
467  0  0   3   0   0  0  0
468  3  0   0   0   0  0  0
469  0  0   4   0   0  1  0
470  4  0   0   0   0  0  0
471  0  1   0   0   0  0  0
472  1  0   0   0   0  0  0
473  0  0   1  51   0  0  0
474  2  0   0   0   0  0  0
475  0  0   3   0   0  0  0
476  0  2   0   0   0  0  0
477  0  0   3   0   0  0  0
478  3  0   0   0   0  0  0
479  0  0   4   0   0  1  0
480  4  0   0   0   0  0  0
481  0  1   0   0   0  0  0
482  1  0   0   0   0  0  0
483  0  0   1  52   0  0  0
484  2  0   0   0   0  0  0
485  0  0   3   0   0  0  0
486  0  2   0   0   0  0  0
487  0  0   3   0   0  0  0
488  3  0   0   0   0  0  0
489  0  0   4   0   0  1  0
490  4  0   0   0   0  0  0
491  0  1   0   0   0  0  0
492  1  0   0   0   0  0  0
493  0  0   1  53   0  0  0
494  2  0   0   0   0  0  0
495  0  0   3   0   0  0  0
496  0  2   0   0   0  0  0
497  0  0   3   0   0  0  0
498  3  0   0   0   0  0  0
499  0  0   4   0   0  1  0
500  4  0   0   0   0  0  0
501  0  1   0   0   0  0  0
502  1  0   0   0   0  0  0
503  0  0   1  54   0  0  0
504  2  0   0   0   0  0  0
505  0  0   3   0   0  0  0
506  0  2   0   0   0  0  0
507  0  0   3   0   0  0  0
508  3  0   0   0   0  0  0
509  0  0   4   0   0  1  0
510  4  0   0   0   0  0  0
511  0  1   0   0   0  0  0
512  1  0   0   0   0  0  0
513  0  0   1  55   0  0  0
514  2  0   0   0   0  0  0
515  0  0   3   0   0  0  0
516  0  2   0   0   0  0  0
517  0  0   3   0   0  0  0
518  3  0   0   0   0  0  0
519  0  0   4   0   0  1  0
520  4  0   0   0   0  0  0
521  0  1   0   0   0  0  0
522  1  0   0   0   0  0  0
523  0  0   1  56   0  0  0
524  2  0   0   0   0  0  0
525  0  0   3   0   0  0  0
526  0  2   0   0   0  0  0
527  0  0   3   0   0  0  0
528  3  0   0   0   0  0  0
529  0  0   4   0   0  1  0
530  4  0   0   0   0  0  0
531  0  1   0   0   0  0  0
532  1  0   0   0   0  0  0
533  0  0   1  57   0  0  0
534  2  0   0   0   0  0  0
535  0  0   3   0   0  0  0
536  0  2   0   0   0  0  0
537  0  0   3   0   0  0  0
538  3  0   0   0   0  0  0
539  0  0   4   0   0  1  0
540  4  0   0   0   0  0  0
541  0  1   0   0   0  0  0
542  1  0   0   0   0  0  0
543  0  0   1  58   0  0  0
544  2  0   0   0   0  0  0
545  0  0   3   0   0  0  0
546  0  2   0   0   0  0  0
547  0  0   3   0   0  0  0
548  3  0   0   0   0  0  0
549  0  0   4   0   0  1  0
550  4  0   0   0   0  0  0
551  0  1   0   0   0  0  0
552  1  0   0   0   0  0  0
553  0  0   1  59   0  0  0
554  2  0   0   0   0  0  0
555  0  0   3   0   0  0  0
556  0  2   0   0   0  0  0
557  0  0   3   0   0  0  0
558  3  0   0   0   0  0  0
559  0  0   4   0   0  1  0
560  4  0   0   0   0  0  0
561  0  1   0   0   0  0  0
562  1  0   0   0   0  0  0
563  0  0   1  60   0  0  0
564  2  0   0   0   0  0  0
565  0  0   3   0   0  0  0
566  0  2   0   0   0  0  0
567  0  0   3   0   0  0  0
568  3  0   0   0   0  0  0
569  0  0   4   0   0  1  0
570  4  0   0   0   0  0  0
571  0  1   0   0   0  0  0
572  1  0   0   0   0  0  0
573  0  0   1  61   0  0  0
574  2  0   0   0   0  0  0
575  0  0   3   0   0  0  0
576  0  2   0   0   0  0  0
577  0  0   3   0   0  0  0
578  3  0   0   0   0  0  0
579  0  0   4   0   0  1  0
580  4  0   0   0   0  0  0
581  0  1   0   0   0  0  0
582  1  0   0   0   0  0  0
583  0  0   1  62   0  0  0
584  2  0   0   0   0  0  0
585  0  0   3   0   0  0  0
586  0  2   0   0   0  0  0
587  0  0   3   0   0  0  0
588  3  0   0   0   0  0  0
589  0  0   4   0   0  1  0
590  4  0   0   0   0  0  0
591  0  1   0   0   0  0  0
592  1  0   0   0   0  0  0
593  0  0   1  63   0  0  0
594  2  0   0   0   0  0  0
595  0  0   3   0   0  0  0
596  0  2   0   0   0  0  0
597  0  0   3   0   0  0  0
598  3  0   0   0   0  0  0
599  0  0   4   0   0  1  0
600  4  0   0   0   0  0  0
601  0  1   0   0   0  0  0
602  1  0   0   0   0  0  0
603  0  0   1  64   0  0  0
604  2  0   0   0   0  0  0
605  0  0   3   0   0  0  0
606  0  2   0   0   0  0  0
607  0  0   3   0   0  0  0
608  3  0   0   0   0  0  0
609  0  0   4   0   0  1  0
610  4  0   0   0   0  0  0
611  0  1   0   0   0  0  0
612  1  0   0   0   0  0  0
613  0  0   1  65   0  0  0
614  2  0   0   0   0  0  0
615  0  0   3   0   0  0  0
616  0  2   0   0   0  0  0
617  0  0   3   0   0  0  0
618  3  0   0   0   0  0  0
619  0  0   4   0   0  1  0
620  4  0   0   0   0  0  0
621  0  1   0   0   0  0  0
622  1  0   0   0   0  0  0
623  0  0   1  66   0  0  0
624  2  0   0   0   0  0  0
625  0  0   3   0   0  0  0
626  0  2   0   0   0  0  0
627  0  0   3   0   0  0  0
628  3  0   0   0   0  0  0
629  0  0   4   0   0  1  0
630  4  0   0   0   0  0  0

# Format of RF events:
# id amplitude mag_id phase_id delay freq phase
# ..        Hz   ....     ....    us   Hz   rad
[RF]
1         2500 1 2 500 0 0
2         2500 3 4 500 0 1.5708

# Format of trapezoid gradients:
# id amplitude rise flat fall delay
# ..      Hz/m   us   us   us    us
[TRAP]
 1  4.97159e+06 240 1520 240   0
 2  -1.3601e+06  70 1860  70   0
 3   2.7027e+06 130  240 130   0
 4  4.16667e+06 200 4000 200   0
 5 -1.31623e+06  70 1860  70   0
 6  -1.2658e+06  60 1880  60   0
 7 -1.22215e+06  60 1880  60   0
 8  -1.1785e+06  60 1880  60   0
 9 -1.13485e+06  60 1880  60   0
10  -1.0912e+06  60 1880  60   0
11 -1.04218e+06  50 1900  50   0
12      -998759  50 1900  50   0
13      -955335  50 1900  50   0
14      -911911  50 1900  50   0
15      -868486  50 1900  50   0
16      -820853  40 1920  40   0
17      -777650  40 1920  40   0
18      -734447  40 1920  40   0
19      -691244  40 1920  40   0
20      -648041  40 1920  40   0
21      -601768  30 1940  30   0
22      -558785  30 1940  30   0
23      -515802  30 1940  30   0
24      -472818  30 1940  30   0
25      -429835  30 1940  30   0
26      -384897  20 1960  20   0
27      -342131  20 1960  20   0
28      -299365  20 1960  20   0
29      -256598  20 1960  20   0
30      -212757  10 1980  10   0
31      -170206  10 1980  10   0
32      -127654  10 1980  10   0
33     -85102.9  10 1980  10   0
34     -42551.5  10 1980  10   0
35            0  10 1980  10   0
36      42551.5  10 1980  10   0
37      85102.9  10 1980  10   0
38       127654  10 1980  10   0
39       170206  10 1980  10   0
40       212757  10 1980  10   0
41       256598  20 1960  20   0
42       299365  20 1960  20   0
43       342131  20 1960  20   0
44       384897  20 1960  20   0
45       429835  30 1940  30   0
46       472818  30 1940  30   0
47       515802  30 1940  30   0
48       558785  30 1940  30   0
49       601768  30 1940  30   0
50       648041  40 1920  40   0
51       691244  40 1920  40   0
52       734447  40 1920  40   0
53       777650  40 1920  40   0
54       820853  40 1920  40   0
55       868486  50 1900  50   0
56       911911  50 1900  50   0
57       955335  50 1900  50   0
58       998759  50 1900  50   0
59  1.04218e+06  50 1900  50   0
60   1.0912e+06  60 1880  60   0
61  1.13485e+06  60 1880  60   0
62   1.1785e+06  60 1880  60   0
63  1.22215e+06  60 1880  60   0
64   1.2658e+06  60 1880  60   0
65  1.31623e+06  70 1860  70   0
66   1.3601e+06  70 1860  70   0

# Format of ADC events:
# id num dwell delay freq phase
# ..  ..    ns    us   Hz   rad
[ADC]
1 800 5000 200 0 0

# Format of delays:
# id delay (us)
[DELAYS]
1 1860
2 1000
3 3200
4 4985000

# Sequence Shapes
[SHAPES]

shape_id 1
num_samples 100
1
0
0
97

shape_id 2
num_samples 100
0
0
98

shape_id 3
num_samples 200
1
0
0
197

shape_id 4
num_samples 200
0
0
198

