# Pulseq sequence file
# Created by PyPulseq

[VERSION]
major 1
minor 4
revision 2

[DEFINITIONS]
AdcRasterTime 1e-06 
BlockDurationRaster 1e-06 
GradientRasterTime 1e-06 
Name 2d_tse_v1 
RadiofrequencyRasterTime 1e-06 
TotalDuration 9.437087 
n_total_trains 20 
tr_delay 0.362013 
train_duration 0.127942 
train_duration_tr 0.489955 

# Format of blocks:
# NUM DUR RF  GX  GY  GZ  ADC  EXT
[BLOCKS]
  1 200   1   0   0   0  0  0
  2 1713   0   1   0   0  0  0
  3 8087   0   0   0   0  0  0
  4 200   2   0   0   0  0  0
  5 1713   0   0   2   0  0  0
  6 6302   0   0   0   0  0  0
  7 3427   0   3   0   0  1  0
  8 6302   0   0   0   0  0  0
  9 1713   0   0   4   0  0  0
 10 200   2   0   0   0  0  0
 11 1713   0   0   5   0  0  0
 12 6302   0   0   0   0  0  0
 13 3427   0   3   0   0  1  0
 14 6302   0   0   0   0  0  0
 15 1713   0   0   6   0  0  0
 16 200   2   0   0   0  0  0
 17 1713   0   0   7   0  0  0
 18 6302   0   0   0   0  0  0
 19 3427   0   3   0   0  1  0
 20 6302   0   0   0   0  0  0
 21 1713   0   0   8   0  0  0
 22 200   2   0   0   0  0  0
 23 1713   0   0   9   0  0  0
 24 6302   0   0   0   0  0  0
 25 3427   0   3   0   0  1  0
 26 6302   0   0   0   0  0  0
 27 1713   0   0   9   0  0  0
 28 200   2   0   0   0  0  0
 29 1713   0   0   8   0  0  0
 30 6302   0   0   0   0  0  0
 31 3427   0   3   0   0  1  0
 32 6302   0   0   0   0  0  0
 33 1713   0   0   7   0  0  0
 34 200   2   0   0   0  0  0
 35 1713   0   0   6   0  0  0
 36 6302   0   0   0   0  0  0
 37 3427   0   3   0   0  1  0
 38 6302   0   0   0   0  0  0
 39 1713   0   0   5   0  0  0
 40 362013   0   0   0   0  0  0
 41 200   1   0   0   0  0  0
 42 1713   0   1   0   0  0  0
 43 8087   0   0   0   0  0  0
 44 200   2   0   0   0  0  0
 45 1713   0   0  10   0  0  0
 46 6302   0   0   0   0  0  0
 47 3427   0   3   0   0  1  0
 48 6302   0   0   0   0  0  0
 49 1713   0   0  11   0  0  0
 50 200   2   0   0   0  0  0
 51 1713   0   0  12   0  0  0
 52 6302   0   0   0   0  0  0
 53 3427   0   3   0   0  1  0
 54 6302   0   0   0   0  0  0
 55 1713   0   0  13   0  0  0
 56 200   2   0   0   0  0  0
 57 1713   0   0  14   0  0  0
 58 6302   0   0   0   0  0  0
 59 3427   0   3   0   0  1  0
 60 6302   0   0   0   0  0  0
 61 1713   0   0  15   0  0  0
 62 200   2   0   0   0  0  0
 63 1713   0   0  16   0  0  0
 64 6302   0   0   0   0  0  0
 65 3427   0   3   0   0  1  0
 66 6302   0   0   0   0  0  0
 67 1713   0   0  17   0  0  0
 68 200   2   0   0   0  0  0
 69 1713   0   0  18   0  0  0
 70 6302   0   0   0   0  0  0
 71 3427   0   3   0   0  1  0
 72 6302   0   0   0   0  0  0
 73 1713   0   0  19   0  0  0
 74 200   2   0   0   0  0  0
 75 1713   0   0  20   0  0  0
 76 6302   0   0   0   0  0  0
 77 3427   0   3   0   0  1  0
 78 6302   0   0   0   0  0  0
 79 1713   0   0  21   0  0  0
 80 362013   0   0   0   0  0  0
 81 200   1   0   0   0  0  0
 82 1713   0   1   0   0  0  0
 83 8087   0   0   0   0  0  0
 84 200   2   0   0   0  0  0
 85 1713   0   0  22   0  0  0
 86 6302   0   0   0   0  0  0
 87 3427   0   3   0   0  1  0
 88 6302   0   0   0   0  0  0
 89 1713   0   0  23   0  0  0
 90 200   2   0   0   0  0  0
 91 1713   0   0  24   0  0  0
 92 6302   0   0   0   0  0  0
 93 3427   0   3   0   0  1  0
 94 6302   0   0   0   0  0  0
 95 1713   0   0  25   0  0  0
 96 200   2   0   0   0  0  0
 97 1713   0   0  26   0  0  0
 98 6302   0   0   0   0  0  0
 99 3427   0   3   0   0  1  0
100 6302   0   0   0   0  0  0
101 1713   0   0  27   0  0  0
102 200   2   0   0   0  0  0
103 1713   0   0  28   0  0  0
104 6302   0   0   0   0  0  0
105 3427   0   3   0   0  1  0
106 6302   0   0   0   0  0  0
107 1713   0   0  29   0  0  0
108 200   2   0   0   0  0  0
109 1713   0   0  30   0  0  0
110 6302   0   0   0   0  0  0
111 3427   0   3   0   0  1  0
112 6302   0   0   0   0  0  0
113 1713   0   0  31   0  0  0
114 200   2   0   0   0  0  0
115 1713   0   0  32   0  0  0
116 6302   0   0   0   0  0  0
117 3427   0   3   0   0  1  0
118 6302   0   0   0   0  0  0
119 1713   0   0  33   0  0  0
120 362013   0   0   0   0  0  0
121 200   1   0   0   0  0  0
122 1713   0   1   0   0  0  0
123 8087   0   0   0   0  0  0
124 200   2   0   0   0  0  0
125 1713   0   0  34   0  0  0
126 6302   0   0   0   0  0  0
127 3427   0   3   0   0  1  0
128 6302   0   0   0   0  0  0
129 1713   0   0  35   0  0  0
130 200   2   0   0   0  0  0
131 1713   0   0  36   0  0  0
132 6302   0   0   0   0  0  0
133 3427   0   3   0   0  1  0
134 6302   0   0   0   0  0  0
135 1713   0   0  37   0  0  0
136 200   2   0   0   0  0  0
137 1713   0   0  38   0  0  0
138 6302   0   0   0   0  0  0
139 3427   0   3   0   0  1  0
140 6302   0   0   0   0  0  0
141 1713   0   0  39   0  0  0
142 200   2   0   0   0  0  0
143 1713   0   0  40   0  0  0
144 6302   0   0   0   0  0  0
145 3427   0   3   0   0  1  0
146 6302   0   0   0   0  0  0
147 1713   0   0  41   0  0  0
148 200   2   0   0   0  0  0
149 1713   0   0  42   0  0  0
150 6302   0   0   0   0  0  0
151 3427   0   3   0   0  1  0
152 6302   0   0   0   0  0  0
153 1713   0   0  43   0  0  0
154 200   2   0   0   0  0  0
155 1713   0   0  44   0  0  0
156 6302   0   0   0   0  0  0
157 3427   0   3   0   0  1  0
158 6302   0   0   0   0  0  0
159 1713   0   0  45   0  0  0
160 362013   0   0   0   0  0  0
161 200   1   0   0   0  0  0
162 1713   0   1   0   0  0  0
163 8087   0   0   0   0  0  0
164 200   2   0   0   0  0  0
165 1713   0   0  46   0  0  0
166 6302   0   0   0   0  0  0
167 3427   0   3   0   0  1  0
168 6302   0   0   0   0  0  0
169 1713   0   0  47   0  0  0
170 200   2   0   0   0  0  0
171 1713   0   0  48   0  0  0
172 6302   0   0   0   0  0  0
173 3427   0   3   0   0  1  0
174 6302   0   0   0   0  0  0
175 1713   0   0  49   0  0  0
176 200   2   0   0   0  0  0
177 1713   0   0  50   0  0  0
178 6302   0   0   0   0  0  0
179 3427   0   3   0   0  1  0
180 6302   0   0   0   0  0  0
181 1713   0   0  51   0  0  0
182 200   2   0   0   0  0  0
183 1713   0   0  52   0  0  0
184 6302   0   0   0   0  0  0
185 3427   0   3   0   0  1  0
186 6302   0   0   0   0  0  0
187 1713   0   0  53   0  0  0
188 200   2   0   0   0  0  0
189 1713   0   0  54   0  0  0
190 6302   0   0   0   0  0  0
191 3427   0   3   0   0  1  0
192 6302   0   0   0   0  0  0
193 1713   0   0  55   0  0  0
194 200   2   0   0   0  0  0
195 1713   0   0  56   0  0  0
196 6302   0   0   0   0  0  0
197 3427   0   3   0   0  1  0
198 6302   0   0   0   0  0  0
199 1713   0   0  57   0  0  0
200 362013   0   0   0   0  0  0
201 200   1   0   0   0  0  0
202 1713   0   1   0   0  0  0
203 8087   0   0   0   0  0  0
204 200   2   0   0   0  0  0
205 1713   0   0  58   0  0  0
206 6302   0   0   0   0  0  0
207 3427   0   3   0   0  1  0
208 6302   0   0   0   0  0  0
209 1713   0   0  59   0  0  0
210 200   2   0   0   0  0  0
211 1713   0   0  60   0  0  0
212 6302   0   0   0   0  0  0
213 3427   0   3   0   0  1  0
214 6302   0   0   0   0  0  0
215 1713   0   0  61   0  0  0
216 200   2   0   0   0  0  0
217 1713   0   0  62   0  0  0
218 6302   0   0   0   0  0  0
219 3427   0   3   0   0  1  0
220 6302   0   0   0   0  0  0
221 1713   0   0  63   0  0  0
222 200   2   0   0   0  0  0
223 1713   0   0  64   0  0  0
224 6302   0   0   0   0  0  0
225 3427   0   3   0   0  1  0
226 6302   0   0   0   0  0  0
227 1713   0   0  65   0  0  0
228 200   2   0   0   0  0  0
229 1713   0   0  66   0  0  0
230 6302   0   0   0   0  0  0
231 3427   0   3   0   0  1  0
232 6302   0   0   0   0  0  0
233 1713   0   0  67   0  0  0
234 200   2   0   0   0  0  0
235 1713   0   0  68   0  0  0
236 6302   0   0   0   0  0  0
237 3427   0   3   0   0  1  0
238 6302   0   0   0   0  0  0
239 1713   0   0  69   0  0  0
240 362013   0   0   0   0  0  0
241 200   1   0   0   0  0  0
242 1713   0   1   0   0  0  0
243 8087   0   0   0   0  0  0
244 200   2   0   0   0  0  0
245 1713   0   0  70   0  0  0
246 6302   0   0   0   0  0  0
247 3427   0   3   0   0  1  0
248 6302   0   0   0   0  0  0
249 1713   0   0  71   0  0  0
250 200   2   0   0   0  0  0
251 1713   0   0  72   0  0  0
252 6302   0   0   0   0  0  0
253 3427   0   3   0   0  1  0
254 6302   0   0   0   0  0  0
255 1713   0   0  73   0  0  0
256 200   2   0   0   0  0  0
257 1713   0   0  74   0  0  0
258 6302   0   0   0   0  0  0
259 3427   0   3   0   0  1  0
260 6302   0   0   0   0  0  0
261 1713   0   0  75   0  0  0
262 200   2   0   0   0  0  0
263 1713   0   0  76   0  0  0
264 6302   0   0   0   0  0  0
265 3427   0   3   0   0  1  0
266 6302   0   0   0   0  0  0
267 1713   0   0  77   0  0  0
268 200   2   0   0   0  0  0
269 1713   0   0  78   0  0  0
270 6302   0   0   0   0  0  0
271 3427   0   3   0   0  1  0
272 6302   0   0   0   0  0  0
273 1713   0   0  79   0  0  0
274 200   2   0   0   0  0  0
275 1713   0   0  80   0  0  0
276 6302   0   0   0   0  0  0
277 3427   0   3   0   0  1  0
278 6302   0   0   0   0  0  0
279 1713   0   0  81   0  0  0
280 362013   0   0   0   0  0  0
281 200   1   0   0   0  0  0
282 1713   0   1   0   0  0  0
283 8087   0   0   0   0  0  0
284 200   2   0   0   0  0  0
285 1713   0   0  82   0  0  0
286 6302   0   0   0   0  0  0
287 3427   0   3   0   0  1  0
288 6302   0   0   0   0  0  0
289 1713   0   0  83   0  0  0
290 200   2   0   0   0  0  0
291 1713   0   0  84   0  0  0
292 6302   0   0   0   0  0  0
293 3427   0   3   0   0  1  0
294 6302   0   0   0   0  0  0
295 1713   0   0  85   0  0  0
296 200   2   0   0   0  0  0
297 1713   0   0  86   0  0  0
298 6302   0   0   0   0  0  0
299 3427   0   3   0   0  1  0
300 6302   0   0   0   0  0  0
301 1713   0   0  87   0  0  0
302 200   2   0   0   0  0  0
303 1713   0   0  88   0  0  0
304 6302   0   0   0   0  0  0
305 3427   0   3   0   0  1  0
306 6302   0   0   0   0  0  0
307 1713   0   0  89   0  0  0
308 200   2   0   0   0  0  0
309 1713   0   0  90   0  0  0
310 6302   0   0   0   0  0  0
311 3427   0   3   0   0  1  0
[RF]
1         1250 1 2 3 0 0 0
2         2500 1 2 3 0 0 0

# Format of trapezoid gradients:
# id amplitude rise flat fall delay
# ..      Hz/m   us   us   us    us
[TRAP]
 1       202336 218 1277 218   0
 2      -198282 200 1313 200   0
 3       177989  28 3371  28   0
 4       198282 200 1313 200   0
 5      -132188 200 1313 200   0
 6       132188 200 1313 200   0
 7     -66093.9 200 1313 200   0
 8      66093.9 200 1313 200   0
 9            0 200 1313 200   0
10      -194977 200 1313 200   0
11       194977 200 1313 200   0
12      -128883 200 1313 200   0
13       128883 200 1313 200   0
14     -62789.2 200 1313 200   0
15      62789.2 200 1313 200   0
16      3304.69 200 1313 200   0
17     -3304.69 200 1313 200   0
18      69398.5 200 1313 200   0
19     -69398.5 200 1313 200   0
20       135492 200 1313 200   0
21      -135492 200 1313 200   0
22      -191672 200 1313 200   0
23       191672 200 1313 200   0
24      -125578 200 1313 200   0
25       125578 200 1313 200   0
26     -59484.5 200 1313 200   0
27      59484.5 200 1313 200   0
28      6609.39 200 1313 200   0
29     -6609.39 200 1313 200   0
30      72703.2 200 1313 200   0
31     -72703.2 200 1313 200   0
32       138797 200 1313 200   0
33      -138797 200 1313 200   0
34      -188367 200 1313 200   0
35       188367 200 1313 200   0
36      -122274 200 1313 200   0
37       122274 200 1313 200   0
38     -56179.8 200 1313 200   0
39      56179.8 200 1313 200   0
40      9914.08 200 1313 200   0
41     -9914.08 200 1313 200   0
42      76007.9 200 1313 200   0
43     -76007.9 200 1313 200   0
44       142102 200 1313 200   0
45      -142102 200 1313 200   0
46      -185063 200 1313 200   0
47       185063 200 1313 200   0
48      -118969 200 1313 200   0
49       118969 200 1313 200   0
50     -52875.1 200 1313 200   0
51      52875.1 200 1313 200   0
52      13218.8 200 1313 200   0
53     -13218.8 200 1313 200   0
54      79312.6 200 1313 200   0
55     -79312.6 200 1313 200   0
56       145406 200 1313 200   0
57      -145406 200 1313 200   0
58      -181758 200 1313 200   0
59       181758 200 1313 200   0
60      -115664 200 1313 200   0
61       115664 200 1313 200   0
62     -49570.4 200 1313 200   0
63      49570.4 200 1313 200   0
64      16523.5 200 1313 200   0
65     -16523.5 200 1313 200   0
66      82617.3 200 1313 200   0
67     -82617.3 200 1313 200   0
68       148711 200 1313 200   0
69      -148711 200 1313 200   0
70      -178453 200 1313 200   0
71       178453 200 1313 200   0
72      -112360 200 1313 200   0
73       112360 200 1313 200   0
74     -46265.7 200 1313 200   0
75      46265.7 200 1313 200   0
76      19828.2 200 1313 200   0
77     -19828.2 200 1313 200   0
78        85922 200 1313 200   0
79       -85922 200 1313 200   0
80       152016 200 1313 200   0
81      -152016 200 1313 200   0
82      -175149 200 1313 200   0
83       175149 200 1313 200   0
84      -109055 200 1313 200   0
85       109055 200 1313 200   0
86       -42961 200 1313 200   0
87        42961 200 1313 200   0
88      23132.8 200 1313 200   0
89     -23132.8 200 1313 200   0
90      89226.7 200 1313 200   0
91     -89226.7 200 1313 200   0
92       155321 200 1313 200   0
93      -155321 200 1313 200   0
94      -171844 200 1313 200   0
95       171844 200 1313 200   0
96      -105750 200 1313 200   0
97       105750 200 1313 200   0
98     -39656.3 200 1313 200   0
99      39656.3 200 1313 200   0
100      26437.5 200 1313 200   0
101     -26437.5 200 1313 200   0
102      92531.4 200 1313 200   0
103     -92531.4 200 1313 200   0
104       158625 200 1313 200   0
105      -158625 200 1313 200   0
106      -168539 200 1313 200   0
107       168539 200 1313 200   0
108      -102445 200 1313 200   0
109       102445 200 1313 200   0
110     -36351.6 200 1313 200   0
111      36351.6 200 1313 200   0
112      29742.2 200 1313 200   0
113     -29742.2 200 1313 200   0
114      95836.1 200 1313 200   0
115     -95836.1 200 1313 200   0
116       161930 200 1313 200   0
117      -161930 200 1313 200   0
118      -165235 200 1313 200   0
119       165235 200 1313 200   0
120     -99140.8 200 1313 200   0
121      99140.8 200 1313 200   0
122     -33046.9 200 1313 200   0
123      33046.9 200 1313 200   0

# Format of ADC events:
# id num dwell delay freq phase
# ..  ..    ns    us   Hz   rad
[ADC]
1 120 28090 28 0 0

# Sequence Shapes
[SHAPES]

shape_id 1
num_samples 2
1
1

shape_id 2
num_samples 2
0
0

shape_id 3
num_samples 2
0
200


[SIGNATURE]
# This is the hash of the Pulseq file, calculated right before the [SIGNATURE] section was added
# It can be reproduced/verified with md5sum if the file trimmed to the position right above [SIGNATURE]
# The new line character preceding [SIGNATURE] BELONGS to the signature (and needs to be stripped away for recalculating/verification)
Type md5
Hash cf27336819cf46462b0fe94ab07dcc23
